PR_ms,QRS_ms,QT_ms,QTc_ms,n_beats
136.5,150.0,350.0,325.25,7.666666666666667
126.66666666666667,160.0,360.0,228.91666666666666,6.333333333333333
132.33333333333334,160.0,356.6666666666667,475.0,3.75
108.41666666666667,150.0,350.0,215.7,3.6666666666666665
126.33333333333333,133.0,333.0,204.63636363636363,7.5
142.75,133.0,333.0,283.75,8.166666666666666
95.83333333333333,150.0,350.0,258.1666666666667,9.833333333333334
123.0,150.0,350.0,346.8333333333333,10.333333333333334
93.66666666666667,160.0,360.0,514.6363636363636,4.166666666666667
137.0,114.0,314.0,265.5833333333333,6.75
113.91666666666667,133.0,333.0,263.75,6.583333333333333
120.25,160.0,360.8333333333333,482.6363636363636,3.9166666666666665
105.66666666666667,133.0,333.0,190.66666666666666,8.25
117.18181818181819,150.0,350.0,251.9,9.083333333333334
122.25,133.0,333.0,286.0,10.0
150.58333333333334,154.0,354.0,342.1666666666667,9.166666666666666
154.25,150.0,350.0,297.8333333333333,6.25
103.16666666666667,160.0,360.0,582.0,5.083333333333333
125.08333333333333,150.0,350.0,327.75,8.083333333333334
91.66666666666667,160.0,360.0,296.75,8.75
88.41666666666667,160.0,360.0,548.0,4.333333333333333
149.0,150.0,350.0,294.4,8.916666666666666
111.08333333333333,133.0,333.0,251.4,7.333333333333333
103.58333333333333,114.0,314.0,206.75,6.666666666666667
118.75,150.0,350.0,264.8181818181818,9.416666666666666
126.08333333333333,150.0,350.0,332.5833333333333,8.0
137.83333333333334,160.0,359.0,531.0909090909091,4.083333333333333
128.16666666666666,150.0,350.0,306.75,7.416666666666667
96.66666666666667,160.0,360.0,265.0,7.416666666666667
74.58333333333333,160.0,361.25,521.1818181818181,3.8333333333333335
133.41666666666666,150.0,350.0,262.09090909090907,8.583333333333334
131.66666666666666,160.0,360.0,188.0,5.75
116.75,133.0,333.0,231.75,7.333333333333333
60.0,133.0,333.0,423.6363636363636,15.5
115.66666666666667,150.0,350.0,356.0833333333333,9.583333333333334
79.25,160.0,358.5,516.1666666666666,4.25
141.66666666666666,150.0,350.0,311.25,7.083333333333333
88.33333333333333,160.0,360.0,253.33333333333334,6.75
106.25,160.0,357.0833333333333,464.3,3.5
133.5,150.0,350.0,296.9166666666667,14.0
132.5,160.0,360.0,293.0,7.416666666666667
127.5,160.0,360.0,310.54545454545456,9.416666666666666
125.0,150.0,350.0,278.75,10.25
132.33333333333334,150.0,350.0,312.0,6.333333333333333
82.91666666666667,160.0,360.0,504.6363636363636,4.083333333333333
145.91666666666666,150.0,350.0,320.4166666666667,7.0
105.0,160.0,360.0,289.8333333333333,11.0
133.66666666666666,160.0,357.0833333333333,484.8181818181818,4.0
104.66666666666667,133.0,333.0,331.9166666666667,10.833333333333334
129.75,114.0,314.0,176.25,5.333333333333333
123.66666666666667,114.0,314.0,185.75,6.0
118.33333333333333,160.0,360.0,310.9166666666667,9.083333333333334
121.91666666666667,150.0,350.0,350.5833333333333,10.5
140.91666666666666,160.0,360.0,538.1818181818181,4.75
134.41666666666666,150.0,350.0,315.6666666666667,8.083333333333334
112.5,133.0,333.0,237.16666666666666,5.833333333333333
108.0,158.75,346.6666666666667,490.27272727272725,3.5833333333333335
90.66666666666667,150.0,350.0,341.9166666666667,14.666666666666666
136.08333333333334,133.0,333.0,187.0909090909091,5.583333333333333
120.0,160.0,360.0,261.75,7.666666666666667
118.41666666666667,133.0,333.0,315.5,8.5
105.91666666666667,114.0,314.0,309.9166666666667,11.25
101.66666666666667,160.0,360.0,543.2727272727273,4.0
153.16666666666666,150.0,350.0,313.6666666666667,7.0
96.66666666666667,160.0,360.0,261.8181818181818,6.5
64.83333333333333,159.16666666666666,359.5833333333333,482.72727272727275,3.75
125.08333333333333,150.0,350.0,248.0,5.916666666666667
107.41666666666667,150.0,350.0,244.72727272727272,6.833333333333333
126.16666666666667,150.0,350.0,255.1818181818182,6.5
85.41666666666667,150.0,350.0,363.1666666666667,14.0
82.16666666666667,114.0,314.0,339.8333333333333,11.916666666666666
119.66666666666667,160.0,360.0,511.4166666666667,4.5
142.91666666666666,150.0,350.0,313.75,7.25
95.0,160.0,360.0,274.1666666666667,9.0
119.0,160.0,358.3333333333333,542.5454545454545,4.0
75.75,133.0,333.0,332.3333333333333,11.75
135.58333333333334,114.0,314.0,218.9090909090909,8.75
111.5,154.0,354.0,310.5,7.5
97.0,133.0,333.0,333.75,13.666666666666666
104.66666666666667,114.0,314.0,294.8333333333333,10.583333333333334
124.41666666666667,160.0,360.0,515.3333333333334,4.583333333333333
138.58333333333334,150.0,350.0,320.3333333333333,7.0
106.66666666666667,160.0,360.0,290.0,10.416666666666666
137.5,160.0,357.0833333333333,517.2727272727273,4.5
116.66666666666667,133.0,333.0,275.45454545454544,8.5
132.33333333333334,150.0,350.0,200.16666666666666,5.583333333333333
107.41666666666667,150.0,350.0,270.8333333333333,7.75
90.66666666666667,133.0,333.0,328.3636363636364,10.75
123.66666666666667,133.0,333.0,249.91666666666666,6.75
113.0,160.0,360.0,574.6363636363636,4.583333333333333
155.33333333333334,150.0,350.0,291.5,7.166666666666667
83.33333333333333,160.0,360.0,287.4166666666667,8.916666666666666
125.25,160.0,359.0,519.75,4.5
127.75,133.0,333.0,311.5,9.833333333333334
106.5,133.0,333.0,259.54545454545456,7.833333333333333
136.33333333333334,145.0,345.0,300.1818181818182,8.333333333333334
99.08333333333333,150.0,350.0,365.3333333333333,16.0
81.0,114.0,314.0,263.75,6.916666666666667
120.66666666666667,160.0,360.0,541.1666666666666,4.583333333333333
143.91666666666666,150.0,350.0,325.1666666666667,8.166666666666666
116.66666666666667,160.0,360.0,282.3333333333333,9.0
137.5,160.0,362.5,518.2727272727273,3.9166666666666665
134.5,114.0,314.0,267.75,11.083333333333334
118.41666666666667,133.0,333.0,224.25,6.916666666666667
122.33333333333333,133.0,333.0,257.72727272727275,8.25
86.83333333333333,114.0,314.0,269.6666666666667,10.333333333333334
155.58333333333334,133.0,333.0,299.3333333333333,11.083333333333334
82.58333333333333,159.0,354.0,526.6363636363636,4.583333333333333
141.66666666666666,150.0,350.0,302.1666666666667,6.833333333333333
115.0,160.0,360.0,244.5,6.333333333333333
110.41666666666667,160.0,357.5,541.7272727272727,4.25
136.91666666666666,114.0,314.0,227.0,9.916666666666666
120.83333333333333,160.0,360.0,288.1666666666667,6.916666666666667
115.16666666666667,145.0,345.0,305.0,7.916666666666667
73.91666666666667,133.0,333.0,376.5,14.916666666666666
103.58333333333333,114.0,314.0,298.1666666666667,9.166666666666666
90.0,160.0,360.0,530.75,4.416666666666667
148.08333333333334,150.0,350.0,313.75,7.0
96.66666666666667,160.0,360.0,290.75,10.333333333333334
100.33333333333333,160.0,356.6666666666667,512.6363636363636,3.75
175.83333333333334,160.0,360.0,386.5,10.25
123.08333333333333,150.0,350.0,235.91666666666666,5.75
150.0,133.0,333.0,327.0833333333333,10.75
85.0,160.0,360.0,409.1666666666667,17.25
90.41666666666667,114.0,314.0,254.5,8.0
120.08333333333333,160.0,360.0,521.5833333333334,4.75
121.91666666666667,150.0,350.0,316.8333333333333,6.666666666666667
81.66666666666667,160.0,360.0,341.45454545454544,10.0
63.166666666666664,160.0,358.1666666666667,524.0833333333334,4.0
82.33333333333333,150.0,350.0,371.1666666666667,18.166666666666668
126.83333333333333,133.0,333.0,256.9166666666667,8.166666666666666
119.5,133.0,333.0,278.4166666666667,9.083333333333334
109.58333333333333,150.0,350.0,265.0,8.0
74.91666666666667,114.0,314.0,303.25,8.583333333333334
71.41666666666667,160.0,356.25,536.5454545454545,4.083333333333333
136.5,150.0,350.0,310.25,7.25
119.5,133.0,333.0,248.0909090909091,5.916666666666667
117.5,160.0,356.6666666666667,508.0,4.0
110.5,150.0,350.0,296.9166666666667,9.666666666666666
144.16666666666666,160.0,360.0,249.9090909090909,4.083333333333333
139.91666666666666,133.0,333.0,197.33333333333334,6.833333333333333
89.58333333333333,150.0,350.0,259.9166666666667,7.916666666666667
128.25,150.0,350.0,326.5,7.833333333333333
123.66666666666667,160.0,360.0,544.5454545454545,4.5
142.83333333333334,150.0,350.0,319.5,7.166666666666667
106.66666666666667,160.0,360.0,287.3333333333333,9.833333333333334
124.25,160.0,361.25,502.9,3.4166666666666665
111.58333333333333,150.0,350.0,264.27272727272725,6.75
165.0,160.0,360.0,200.08333333333334,6.5
97.08333333333333,133.0,333.0,309.0833333333333,11.583333333333334
125.08333333333333,114.0,314.0,213.91666666666666,7.583333333333333
136.41666666666666,150.0,350.0,272.8333333333333,4.416666666666667
72.0,159.16666666666666,359.0,520.8333333333334,4.083333333333333
140.66666666666666,150.0,350.0,313.8333333333333,7.083333333333333
120.0,160.0,360.0,247.41666666666666,6.75
116.41666666666667,160.0,362.0833333333333,523.0909090909091,4.0
121.83333333333333,150.0,350.0,284.8333333333333,10.083333333333334
140.25,133.0,333.0,217.9,7.083333333333333
110.0,160.0,360.0,302.5833333333333,8.166666666666666
74.83333333333333,133.0,333.0,402.9,15.416666666666666
111.91666666666667,114.0,314.0,291.0833333333333,11.083333333333334
141.08333333333334,158.75,358.75,524.8333333333334,5.083333333333333
133.41666666666666,150.0,350.0,298.0833333333333,6.583333333333333
138.33333333333334,160.0,360.0,295.75,10.25
144.33333333333334,160.0,357.5,516.4545454545455,4.333333333333333
97.91666666666667,150.0,350.0,362.8333333333333,13.666666666666666
97.5,114.0,314.0,184.36363636363637,5.333333333333333
120.16666666666667,133.0,333.0,290.09090909090907,7.166666666666667
140.0,160.0,360.0,329.9166666666667,10.083333333333334
107.16666666666667,114.0,314.0,309.6666666666667,10.416666666666666
139.0,160.0,360.0,548.4166666666666,4.833333333333333
118.75,150.0,350.0,304.1666666666667,7.166666666666667
115.0,160.0,360.0,305.1818181818182,8.333333333333334
96.91666666666667,159.83333333333334,358.1666666666667,479.9,3.6666666666666665
129.66666666666666,133.0,333.0,267.0,7.916666666666667
134.41666666666666,150.0,350.0,258.6666666666667,8.583333333333334
102.75,133.0,333.0,262.75,7.916666666666667
124.08333333333333,133.0,333.0,285.8333333333333,9.583333333333334
115.0,160.0,360.0,271.0,8.333333333333334
84.33333333333333,160.0,358.1666666666667,535.0833333333334,4.5
143.83333333333334,150.0,350.0,332.1666666666667,7.416666666666667
91.75,133.0,333.0,247.41666666666666,5.75
95.41666666666667,159.83333333333334,357.25,483.4166666666667,4.166666666666667
118.91666666666667,114.0,314.0,208.33333333333334,8.166666666666666
114.83333333333333,150.0,350.0,238.58333333333334,6.166666666666667
117.5,160.0,360.0,316.72727272727275,7.666666666666667
57.0,133.0,333.0,472.27272727272725,20.416666666666668
82.16666666666667,114.0,314.0,278.25,8.333333333333334
131.08333333333334,160.0,360.0,544.4545454545455,4.333333333333333
149.08333333333334,150.0,350.0,314.75,7.0
109.58333333333333,114.0,314.0,224.16666666666666,5.083333333333333
127.41666666666667,160.0,358.75,472.6666666666667,3.9166666666666665
127.16666666666667,150.0,350.0,297.25,9.833333333333334
120.16666666666667,114.0,306.9166666666667,205.27272727272728,6.416666666666667
101.58333333333333,145.0,345.0,293.6666666666667,7.25
72.5,160.0,360.0,465.75,17.75
89.25,114.0,314.0,294.75,9.666666666666666
133.16666666666666,160.0,360.0,522.75,4.916666666666667
133.33333333333334,150.0,350.0,314.9166666666667,7.583333333333333
113.33333333333333,160.0,360.0,244.83333333333334,6.083333333333333
81.25,160.0,356.25,493.6363636363636,3.75
87.5,150.0,350.0,283.0,6.416666666666667
117.33333333333333,145.0,345.0,268.90909090909093,5.666666666666667
109.16666666666667,160.0,360.0,238.33333333333334,6.166666666666667
76.66666666666667,133.0,333.0,369.1666666666667,16.0
109.5,150.0,350.0,337.5833333333333,7.75
109.41666666666667,160.0,360.0,547.0,5.166666666666667
147.08333333333334,150.0,350.0,323.9166666666667,7.5
93.33333333333333,160.0,360.0,283.9166666666667,8.333333333333334
82.66666666666667,160.0,355.8333333333333,498.09090909090907,3.6666666666666665
101.08333333333333,150.0,350.0,324.25,12.416666666666666
120.83333333333333,160.0,360.0,194.45454545454547,4.083333333333333
118.66666666666667,154.0,354.0,343.27272727272725,8.333333333333334
112.5,160.0,360.0,413.27272727272725,15.75
117.83333333333333,114.0,314.0,299.3333333333333,11.0
111.5,160.0,360.0,543.4545454545455,4.583333333333333
156.25,150.0,350.0,304.5,7.416666666666667
106.66666666666667,160.0,360.0,271.5833333333333,7.416666666666667
84.33333333333333,160.0,351.25,476.4166666666667,3.9166666666666665
129.25,150.0,350.0,226.41666666666666,5.916666666666667
120.75,133.0,333.0,208.08333333333334,9.166666666666666
96.91666666666667,150.0,350.0,242.41666666666666,7.5
57.166666666666664,133.0,333.0,424.0,20.333333333333332
120.25,114.0,314.0,293.0833333333333,9.916666666666666
144.5,160.0,360.0,542.6666666666666,5.166666666666667
144.83333333333334,150.0,350.0,297.6666666666667,6.916666666666667
130.0,160.0,360.0,274.5,8.916666666666666
139.91666666666666,158.16666666666666,356.9166666666667,521.0833333333334,4.75
114.58333333333333,150.0,350.0,249.1,5.416666666666667
97.25,133.0,333.0,267.8,7.083333333333333
82.66666666666667,145.0,345.0,262.1666666666667,7.166666666666667
94.16666666666667,160.0,360.0,425.0,14.916666666666666
150.0,150.0,350.0,332.4166666666667,8.0
143.41666666666666,160.0,357.0833333333333,539.7272727272727,4.916666666666667
126.08333333333333,150.0,350.0,315.75,7.166666666666667
113.33333333333333,160.0,360.0,296.5833333333333,9.083333333333334
124.41666666666667,160.0,356.6666666666667,512.7777777777778,3.4166666666666665
91.66666666666667,133.0,333.0,263.45454545454544,7.333333333333333
155.0,160.0,360.0,204.0909090909091,5.583333333333333
134.83333333333334,145.0,345.0,259.8181818181818,5.416666666666667
93.83333333333333,150.0,350.0,258.90909090909093,7.083333333333333
102.33333333333333,114.0,314.0,296.9166666666667,8.0
132.25,160.0,360.0,550.3636363636364,4.583333333333333
141.83333333333334,150.0,350.0,320.0,7.916666666666667
116.66666666666667,160.0,360.0,269.3333333333333,6.916666666666667
88.5,160.0,362.0833333333333,525.5454545454545,4.083333333333333
140.0,160.0,360.0,220.1818181818182,7.666666666666667
126.0,133.0,333.0,241.7,5.666666666666667
99.0,133.0,333.0,269.3333333333333,8.25
90.83333333333333,160.0,360.0,457.5833333333333,15.083333333333334
110.66666666666667,114.0,314.0,264.6666666666667,6.75
105.66666666666667,160.0,360.0,517.3636363636364,4.166666666666667
122.0,150.0,350.0,327.6666666666667,7.75
88.33333333333333,160.0,360.0,271.5833333333333,8.5
129.5,160.0,359.0,523.0,4.666666666666667
106.33333333333333,150.0,350.0,245.33333333333334,7.5
131.25,150.0,350.0,251.2,4.916666666666667
129.33333333333334,150.0,350.0,284.9166666666667,10.0
81.25,150.0,350.0,376.75,15.416666666666666
115.33333333333333,114.0,314.0,257.8333333333333,6.25
86.0,160.0,360.0,495.8181818181818,3.6666666666666665
136.5,150.0,350.0,307.5833333333333,7.0
90.0,160.0,360.0,312.5833333333333,10.416666666666666
141.33333333333334,160.0,360.8333333333333,539.6666666666666,5.0
115.83333333333333,133.0,333.0,292.09090909090907,9.833333333333334
108.25,114.0,314.0,208.72727272727272,5.333333333333333
117.5,160.0,360.0,290.6363636363636,7.833333333333333
74.83333333333333,133.0,333.0,424.4,17.0
118.0,133.0,333.0,300.8333333333333,11.333333333333334
96.91666666666667,160.0,360.0,502.6363636363636,4.333333333333333
153.16666666666666,150.0,350.0,324.6666666666667,6.916666666666667
126.66666666666667,160.0,360.0,233.66666666666666,5.583333333333333
91.91666666666667,160.0,356.25,493.8181818181818,3.5833333333333335
145.91666666666666,150.0,350.0,244.8,6.083333333333333
120.83333333333333,150.0,350.0,227.4,4.666666666666667
107.33333333333333,150.0,350.0,229.6,4.166666666666667
91.66666666666667,150.0,350.0,416.8,14.083333333333334
98.83333333333333,114.0,314.0,302.9166666666667,10.333333333333334
120.5,160.0,357.6666666666667,505.5833333333333,4.083333333333333
143.83333333333334,150.0,350.0,308.3333333333333,6.75
93.33333333333333,160.0,360.0,290.0833333333333,8.333333333333334
78.75,160.0,357.0833333333333,499.90909090909093,3.5
103.16666666666667,150.0,350.0,329.72727272727275,14.916666666666666
98.33333333333333,160.0,360.0,290.9166666666667,6.833333333333333
111.5,150.0,350.0,239.16666666666666,7.0
126.0,150.0,350.0,285.7,9.25
104.83333333333333,114.0,314.0,285.3333333333333,9.083333333333334
73.5,160.0,359.0,531.4166666666666,4.416666666666667
152.08333333333334,150.0,350.0,313.4166666666667,6.416666666666667
121.66666666666667,160.0,360.0,293.6666666666667,10.583333333333334
127.41666666666667,160.0,357.5,542.7272727272727,4.416666666666667
95.83333333333333,150.0,350.0,382.8181818181818,16.0
173.33333333333334,160.0,360.0,205.91666666666666,9.416666666666666
112.5,160.0,360.0,302.4166666666667,10.083333333333334
107.5,133.0,333.0,350.90909090909093,12.333333333333334
126.08333333333333,150.0,350.0,308.27272727272725,5.416666666666667
70.16666666666667,160.0,359.5833333333333,526.2727272727273,4.25
111.5,150.0,350.0,327.6666666666667,8.166666666666666
98.33333333333333,160.0,360.0,290.3333333333333,10.25
128.16666666666666,160.0,360.0,532.6666666666666,4.916666666666667
160.83333333333334,160.0,360.0,338.0,11.833333333333334
160.66666666666666,114.0,314.0,211.72727272727272,8.0
116.58333333333333,114.0,314.0,145.0,4.583333333333333
85.0,133.0,333.0,430.1818181818182,17.666666666666668
148.75,114.0,314.0,301.1666666666667,11.25
129.66666666666666,160.0,357.0833333333333,550.0,5.083333333333333
129.25,150.0,350.0,313.0,7.666666666666667
101.33333333333333,133.0,333.0,250.91666666666666,6.416666666666667
127.08333333333333,160.0,360.0,497.0,3.8333333333333335
132.33333333333334,150.0,350.0,278.72727272727275,10.583333333333334
134.83333333333334,145.0,345.0,229.0909090909091,5.25
177.08333333333334,150.0,350.0,272.4166666666667,8.666666666666666
86.81818181818181,133.0,333.0,401.2,14.0
91.66666666666667,114.0,314.0,294.6666666666667,8.916666666666666
84.66666666666667,160.0,360.0,519.6363636363636,4.0
156.25,150.0,350.0,304.8333333333333,6.916666666666667
102.83333333333333,133.0,333.0,212.58333333333334,5.0
105.58333333333333,160.0,356.25,528.2727272727273,3.8333333333333335
121.91666666666667,150.0,350.0,304.0833333333333,11.916666666666666
107.41666666666667,133.0,333.0,240.9090909090909,4.583333333333333
132.5,160.0,360.0,282.5,7.166666666666667
113.16666666666667,114.0,314.0,211.41666666666666,6.75
128.16666666666666,150.0,350.0,364.0833333333333,8.25
125.41666666666667,160.0,357.5,558.9090909090909,5.0
130.25,150.0,350.0,311.0,7.583333333333333
93.33333333333333,160.0,360.0,267.0,6.083333333333333
140.75,160.0,358.5,529.3333333333334,4.5
125.58333333333333,133.0,333.0,323.75,8.833333333333334
144.91666666666666,150.0,350.0,298.77777777777777,7.416666666666667
101.66666666666667,160.0,360.0,270.75,6.583333333333333
65.83333333333333,160.0,360.0,477.0833333333333,17.833333333333332
76.08333333333333,114.0,314.0,313.5833333333333,11.083333333333334
149.33333333333334,160.0,357.5,551.6363636363636,5.25
141.75,150.0,350.0,313.5,7.416666666666667
108.33333333333333,160.0,360.0,292.6666666666667,10.0
83.75,159.83333333333334,360.8333333333333,484.25,4.083333333333333
102.83333333333333,133.0,333.0,299.1,9.166666666666666
136.16666666666666,133.0,333.0,202.0,7.083333333333333
124.16666666666667,160.0,360.0,295.54545454545456,7.666666666666667
89.08333333333333,114.0,314.0,360.90909090909093,17.666666666666668
80.75,133.0,333.0,297.0833333333333,8.75
75.75,160.0,360.0,582.6666666666666,4.333333333333333
143.75,150.0,350.0,313.1666666666667,7.0
131.66666666666666,160.0,360.0,237.33333333333334,5.583333333333333
139.66666666666666,160.0,356.25,461.90909090909093,3.5
121.91666666666667,150.0,350.0,384.0,12.083333333333334
120.91666666666667,150.0,350.0,231.0909090909091,5.833333333333333
72.83333333333333,145.0,345.0,315.3333333333333,8.333333333333334
66.41666666666667,133.0,333.0,374.27272727272725,13.416666666666666
120.25,114.0,314.0,258.6666666666667,6.416666666666667
125.83333333333333,160.0,360.0,485.4166666666667,4.416666666666667
126.25,150.0,350.0,318.3333333333333,7.75
98.66666666666667,133.0,333.0,249.83333333333334,6.166666666666667
94.58333333333333,160.0,360.8333333333333,501.4166666666667,4.166666666666667
119.75,150.0,350.0,293.90909090909093,11.166666666666666
170.0,160.0,360.0,191.0909090909091,5.083333333333333
116.58333333333333,133.0,333.0,283.8333333333333,7.5
90.41666666666667,114.0,314.0,282.45454545454544,10.5
148.0,150.0,350.0,302.8181818181818,5.666666666666667
103.16666666666667,160.0,358.3333333333333,554.8333333333334,4.25
153.25,150.0,350.0,306.5,7.333333333333333
119.41666666666667,133.0,333.0,233.83333333333334,5.333333333333333
99.83333333333333,160.0,356.6666666666667,504.1818181818182,3.5
108.41666666666667,150.0,350.0,276.5,10.083333333333334
140.58333333333334,150.0,350.0,244.3,5.666666666666667
100.0,160.0,360.0,228.41666666666666,5.833333333333333
50.18181818181818,133.0,333.0,486.09090909090907,21.333333333333332
83.5,133.0,333.0,259.75,7.083333333333333
114.5,160.0,360.0,525.9090909090909,3.9166666666666665
137.58333333333334,150.0,350.0,293.5833333333333,7.333333333333333
118.33333333333333,160.0,360.0,256.0833333333333,6.166666666666667
103.5,160.0,361.25,509.4166666666667,4.333333333333333
127.16666666666667,150.0,350.0,289.75,8.75
109.16666666666667,133.0,333.0,234.33333333333334,6.75
131.41666666666666,133.0,333.0,251.08333333333334,8.083333333333334
101.66666666666667,160.0,360.0,370.5833333333333,13.25
114.41666666666667,114.0,314.0,279.9166666666667,8.166666666666666
108.66666666666667,160.0,360.0,542.5833333333334,4.5
141.66666666666666,150.0,350.0,304.4166666666667,7.416666666666667
120.0,160.0,360.0,252.0,6.5
104.0,160.0,356.6666666666667,521.4545454545455,4.0
127.33333333333333,114.0,314.0,221.25,8.166666666666666
116.66666666666667,133.0,333.0,214.91666666666666,6.75
108.33333333333333,133.0,333.0,242.66666666666666,6.5
65.58333333333333,133.0,333.0,399.45454545454544,16.083333333333332
136.16666666666666,133.0,333.0,334.5,7.0
118.08333333333333,160.0,360.0,529.1666666666666,5.083333333333333
152.16666666666666,150.0,350.0,295.1666666666667,6.916666666666667
116.58333333333333,133.0,333.0,238.66666666666666,5.333333333333333
125.16666666666667,160.0,357.0833333333333,530.5,3.5
110.33333333333333,133.0,333.0,268.3,8.916666666666666
136.08333333333334,133.0,333.0,246.54545454545453,4.75
138.0,145.0,345.0,261.0,6.083333333333333
121.0,150.0,350.0,251.1818181818182,7.0
145.91666666666666,150.0,350.0,349.0833333333333,9.583333333333334
135.75,160.0,359.3333333333333,540.6666666666666,4.333333333333333
140.75,150.0,350.0,303.25,7.583333333333333
96.66666666666667,160.0,360.0,295.0,10.0
139.16666666666666,160.0,360.0,550.5,4.916666666666667
123.08333333333333,150.0,350.0,297.27272727272725,9.5
133.25,133.0,333.0,196.4,5.25
123.08333333333333,133.0,333.0,264.90909090909093,6.916666666666667
109.41666666666667,114.0,314.0,243.75,7.0
79.75,114.0,314.0,304.0833333333333,9.5
95.0,160.0,360.0,547.8181818181819,4.5
151.16666666666666,150.0,350.0,304.1666666666667,7.083333333333333
111.66666666666667,160.0,360.0,284.0833333333333,10.416666666666666
128.5,160.0,359.3333333333333,532.1666666666666,4.833333333333333
107.41666666666667,133.0,333.0,282.3,8.25
114.66666666666667,150.0,350.0,254.88888888888889,4.583333333333333
95.91666666666667,150.0,350.0,279.6666666666667,9.166666666666666
110.83333333333333,160.0,360.0,372.27272727272725,12.416666666666666
125.0,114.0,314.0,290.9166666666667,9.583333333333334
96.0,160.0,362.9166666666667,556.8181818181819,4.166666666666667
143.75,150.0,350.0,321.3333333333333,7.0
131.66666666666666,160.0,360.0,256.8181818181818,6.083333333333333
118.91666666666667,160.0,357.5,495.90909090909093,3.9166666666666665
132.5,133.0,333.0,312.4166666666667,13.583333333333334
123.66666666666667,114.0,314.0,203.1818181818182,6.5
82.5,160.0,360.0,308.6363636363636,7.166666666666667
77.5,160.0,360.0,479.6666666666667,19.666666666666668
109.41666666666667,150.0,350.0,365.9166666666667,10.0
146.91666666666666,160.0,360.0,519.1818181818181,4.5
129.16666666666666,150.0,350.0,323.5833333333333,7.083333333333333
111.66666666666667,160.0,360.0,269.25,8.5
99.83333333333333,160.0,349.75,478.8181818181818,4.0
109.41666666666667,150.0,350.0,285.4166666666667,9.5
146.41666666666666,114.0,314.0,210.58333333333334,8.333333333333334
121.91666666666667,150.0,350.0,249.0,6.0
119.0,145.0,345.0,330.5,8.166666666666666
111.5,150.0,350.0,368.5833333333333,11.333333333333334
134.75,160.0,360.0,575.3333333333334,5.333333333333333
157.33333333333334,150.0,350.0,317.4166666666667,7.583333333333333
100.0,160.0,360.0,248.75,6.75
142.83333333333334,160.0,362.5,513.8,4.0
68.41666666666667,133.0,333.0,340.6363636363636,13.75
111.16666666666667,133.0,325.5833333333333,287.90909090909093,7.75
118.5,133.0,333.0,312.9166666666667,11.583333333333334
100.83333333333333,133.0,333.0,317.90909090909093,13.083333333333334
145.08333333333334,114.0,314.0,293.5833333333333,9.75
141.0,158.75,358.75,516.1666666666666,4.916666666666667
134.5,150.0,350.0,296.3333333333333,6.916666666666667
108.33333333333333,160.0,360.0,232.83333333333334,6.0
118.33333333333333,160.0,357.0833333333333,494.27272727272725,4.0
121.91666666666667,150.0,350.0,231.75,7.583333333333333
114.0,133.0,333.0,191.0,5.583333333333333
101.08333333333333,150.0,350.0,242.41666666666666,7.083333333333333
83.33333333333333,150.0,350.0,384.6363636363636,16.833333333333332
104.16666666666667,150.0,350.0,353.1666666666667,10.0
144.58333333333334,160.0,357.0833333333333,517.0,4.416666666666667
141.75,150.0,350.0,326.3333333333333,7.75
85.0,160.0,360.0,309.4166666666667,9.833333333333334
95.33333333333333,160.0,360.0,474.8181818181818,3.4166666666666665
112.91666666666667,133.0,333.0,270.4,9.0
135.66666666666666,114.0,314.0,183.2,5.666666666666667
118.58333333333333,133.0,333.0,254.83333333333334,8.916666666666666
101.16666666666667,150.0,350.0,312.6363636363636,11.166666666666666
138.66666666666666,150.0,350.0,353.1666666666667,9.916666666666666
105.41666666666667,160.0,360.0,502.45454545454544,4.25
149.16666666666666,150.0,350.0,312.0,7.166666666666667
110.0,160.0,360.0,277.3636363636364,7.666666666666667
70.16666666666667,160.0,360.0,514.4166666666666,4.166666666666667
119.91666666666667,150.0,350.0,228.5,6.25
129.16666666666666,133.0,333.0,207.0,8.5
110.41666666666667,150.0,350.0,228.0,6.166666666666667
106.0,145.0,345.0,449.0,14.416666666666666
141.91666666666666,133.0,333.0,345.1666666666667,9.416666666666666
89.83333333333333,160.0,360.0,512.3333333333334,4.25
153.16666666666666,150.0,350.0,309.1666666666667,7.25
123.33333333333333,160.0,360.0,270.5,7.416666666666667
87.41666666666667,160.0,360.0,486.9166666666667,4.083333333333333
112.58333333333333,150.0,350.0,225.27272727272728,5.75
132.25,114.0,314.0,200.58333333333334,8.75
80.5,133.0,333.0,277.25,8.166666666666666
117.41666666666667,145.0,345.0,417.6363636363636,13.75
135.5,150.0,350.0,354.1666666666667,9.916666666666666
119.0,160.0,360.0,512.3636363636364,4.5
158.33333333333334,150.0,350.0,292.5833333333333,6.166666666666667
85.0,160.0,360.0,280.6666666666667,7.833333333333333
115.75,160.0,357.5,514.0909090909091,4.0
82.33333333333333,150.0,350.0,295.8181818181818,8.166666666666666
133.41666666666666,133.0,333.0,214.7,6.583333333333333
114.16666666666667,160.0,360.0,329.45454545454544,9.166666666666666
56.81818181818182,150.0,350.0,493.0,18.666666666666668
96.41666666666667,114.0,314.0,304.5833333333333,8.583333333333334
115.33333333333333,160.0,360.0,554.4545454545455,4.166666666666667
151.08333333333334,150.0,350.0,315.4166666666667,7.25
100.08333333333333,133.0,333.0,296.90909090909093,8.666666666666666
139.16666666666666,160.0,361.6666666666667,492.72727272727275,3.6666666666666665
142.75,114.0,314.0,280.27272727272725,13.5
160.0,160.0,360.0,208.41666666666666,8.25
118.08333333333333,145.0,345.0,326.8333333333333,8.416666666666666
84.16666666666667,160.0,360.0,394.54545454545456,11.166666666666666
115.5,114.0,314.0,280.0833333333333,9.416666666666666
88.83333333333333,160.0,360.0,530.8181818181819,3.9166666666666665
142.83333333333334,150.0,350.0,306.5833333333333,7.416666666666667
91.66666666666667,160.0,360.0,267.5833333333333,8.166666666666666
136.08333333333334,160.0,358.5,529.1666666666666,4.75
134.33333333333334,150.0,350.0,283.6363636363636,8.583333333333334
122.25,133.0,333.0,220.3,7.916666666666667
75.08333333333333,145.0,345.0,285.8333333333333,7.25
68.33333333333333,160.0,360.0,447.0,19.0
91.5,114.0,314.0,250.5,6.833333333333333
82.91666666666667,160.0,357.3333333333333,515.9166666666666,4.0
128.16666666666666,150.0,350.0,311.4166666666667,7.0
103.33333333333333,160.0,360.0,298.6666666666667,10.5
96.91666666666667,160.0,361.6666666666667,485.90909090909093,3.9166666666666665
116.75,150.0,350.0,295.09090909090907,9.833333333333334
113.0,114.0,314.0,241.3,9.666666666666666
100.83333333333333,160.0,360.0,319.27272727272725,8.25
127.66666666666667,133.0,333.0,221.72727272727272,8.083333333333334
105.91666666666667,114.0,314.0,304.1666666666667,10.666666666666666
147.41666666666666,160.0,360.0,521.1666666666666,5.25
142.66666666666666,150.0,350.0,312.5833333333333,7.25
110.0,160.0,360.0,259.8333333333333,6.583333333333333
69.91666666666667,160.0,356.8333333333333,518.75,4.583333333333333
133.41666666666666,150.0,350.0,270.0,8.583333333333334
116.58333333333333,114.0,314.0,192.45454545454547,6.666666666666667
98.0,154.0,354.0,299.9166666666667,6.416666666666667
101.66666666666667,160.0,360.0,389.5833333333333,13.083333333333334
82.08333333333333,133.0,333.0,312.9166666666667,10.75
102.08333333333333,160.0,360.0,533.0833333333334,4.666666666666667
134.41666666666666,150.0,350.0,312.4166666666667,7.083333333333333
125.0,133.0,333.0,204.0,4.583333333333333
90.33333333333333,160.0,362.9166666666667,490.72727272727275,3.6666666666666665
86.5,150.0,350.0,406.6,15.333333333333334
130.9090909090909,160.0,360.0,208.8181818181818,5.666666666666667
138.5,150.0,350.0,171.58333333333334,4.166666666666667
137.5,160.0,360.0,410.54545454545456,15.833333333333334
87.0,114.0,314.0,299.8333333333333,10.083333333333334
145.75,160.0,360.0,523.2727272727273,4.333333333333333
123.0,150.0,350.0,322.5833333333333,7.166666666666667
128.33333333333334,160.0,360.0,257.9166666666667,7.0
109.58333333333333,160.0,362.5,521.7272727272727,3.8333333333333335
129.66666666666666,114.0,314.0,285.0,13.25
101.0,150.0,350.0,266.25,10.083333333333334
134.33333333333334,150.0,350.0,241.54545454545453,7.0
81.33333333333333,150.0,350.0,345.0833333333333,9.833333333333334
105.83333333333333,114.0,314.0,304.45454545454544,9.25
92.33333333333333,160.0,360.0,527.7,4.333333333333333
141.66666666666666,150.0,350.0,286.4166666666667,6.416666666666667
95.0,160.0,360.0,268.5833333333333,8.416666666666666
132.75,160.0,357.5,528.1818181818181,4.333333333333333
85.91666666666667,133.0,333.0,407.8181818181818,15.833333333333334
120.91666666666667,150.0,350.0,254.0909090909091,7.583333333333333
133.33333333333334,160.0,360.0,250.1818181818182,5.333333333333333
103.33333333333333,160.0,360.0,486.7,16.666666666666668
127.16666666666667,150.0,350.0,357.4166666666667,11.25
147.0,160.0,357.9166666666667,542.0,4.75
151.08333333333334,150.0,350.0,322.0,7.416666666666667
150.0,160.0,360.0,283.0,9.75
146.66666666666666,160.0,357.5,532.9090909090909,4.583333333333333
103.83333333333333,133.0,333.0,252.83333333333334,8.083333333333334
116.83333333333333,150.0,350.0,250.91666666666666,7.0
101.08333333333333,150.0,350.0,250.16666666666666,7.166666666666667
82.33333333333333,150.0,350.0,310.3333333333333,11.166666666666666
102.41666666666667,114.0,314.0,298.9166666666667,8.666666666666666
100.41666666666667,160.0,358.3333333333333,541.1818181818181,4.25
141.83333333333334,150.0,350.0,288.3333333333333,6.833333333333333
115.0,160.0,360.0,285.75,9.833333333333334
80.0,160.0,354.8333333333333,488.6,3.3333333333333335
72.91666666666667,150.0,350.0,360.90909090909093,15.833333333333334
111.5,150.0,350.0,190.8,4.916666666666667
90.91666666666667,133.0,333.0,287.3333333333333,8.5
82.33333333333333,133.0,333.0,390.1818181818182,13.75
89.16666666666667,114.0,314.0,307.3333333333333,9.583333333333334
140.5,160.0,360.0,541.0909090909091,4.75
145.91666666666666,150.0,350.0,292.0833333333333,6.916666666666667
116.58333333333333,133.0,333.0,241.9090909090909,5.083333333333333
78.91666666666667,160.0,357.0833333333333,535.5454545454545,3.5833333333333335
102.16666666666667,150.0,350.0,299.6,8.083333333333334
151.66666666666666,160.0,360.0,195.9,6.0
124.16666666666667,160.0,360.0,270.3333333333333,7.583333333333333
85.83333333333333,160.0,360.0,486.3,12.25
163.0,114.0,314.0,290.6666666666667,11.083333333333334
147.41666666666666,160.0,360.0,553.0,5.333333333333333
136.58333333333334,150.0,350.0,313.0833333333333,7.666666666666667
137.5,133.0,333.0,221.91666666666666,5.083333333333333
124.0,159.58333333333334,349.4166666666667,486.6666666666667,3.8333333333333335
121.91666666666667,150.0,350.0,243.25,5.916666666666667
125.08333333333333,114.0,314.0,192.27272727272728,5.333333333333333
125.91666666666667,133.0,333.0,258.1666666666667,7.333333333333333
103.08333333333333,150.0,350.0,307.90909090909093,8.583333333333334
144.83333333333334,150.0,350.0,355.0,10.083333333333334
73.91666666666667,159.33333333333334,358.0833333333333,520.3636363636364,3.9166666666666665
142.75,150.0,350.0,313.5,7.833333333333333
91.66666666666667,160.0,360.0,305.27272727272725,9.416666666666666
130.83333333333334,159.58333333333334,348.3333333333333,490.27272727272725,3.9166666666666665
78.16666666666667,150.0,350.0,449.45454545454544,15.583333333333334
118.41666666666667,133.0,333.0,291.6,7.916666666666667
85.0,160.0,360.0,275.4,6.25
60.75,133.0,333.0,401.90909090909093,14.416666666666666
84.91666666666667,133.0,333.0,304.5,10.333333333333334
92.08333333333333,160.0,360.0,518.5,4.416666666666667
153.25,150.0,350.0,322.25,7.916666666666667
96.66666666666667,160.0,360.0,240.5,7.5
107.75,160.0,357.0833333333333,492.6,3.6666666666666665
117.5,160.0,360.0,333.5,10.416666666666666
139.75,133.0,333.0,249.54545454545453,6.333333333333333
94.16666666666667,160.0,360.0,309.72727272727275,7.833333333333333
69.75,150.0,350.0,398.4166666666667,15.25
96.41666666666667,114.0,314.0,277.25,7.916666666666667
129.16666666666666,160.0,360.0,541.1818181818181,4.333333333333333
137.5,150.0,350.0,325.0833333333333,7.333333333333333
146.66666666666666,160.0,360.0,219.0,5.0
113.91666666666667,160.0,358.3333333333333,515.4545454545455,4.0
120.91666666666667,133.0,333.0,231.72727272727272,9.833333333333334
152.25,114.0,314.0,206.58333333333334,7.916666666666667
109.16666666666667,160.0,360.0,316.3333333333333,10.25
90.5,133.0,333.0,331.8181818181818,12.083333333333334
170.08333333333334,114.0,314.0,290.25,10.666666666666666
145.41666666666666,160.0,360.0,551.75,5.0
151.16666666666666,150.0,350.0,315.25,7.083333333333333
113.33333333333333,160.0,360.0,280.4166666666667,8.5
90.08333333333333,160.0,358.5,496.1666666666667,3.75
80.41666666666667,133.0,333.0,345.8181818181818,10.833333333333334
136.0,133.0,333.0,220.58333333333334,5.0
137.0,133.0,333.0,280.1666666666667,10.333333333333334
62.5,150.0,350.0,461.45454545454544,19.166666666666668
100.0,133.0,333.0,268.8333333333333,7.333333333333333
111.33333333333333,160.0,360.0,515.8333333333334,4.083333333333333
138.5,150.0,350.0,295.0,6.5
120.0,160.0,360.0,299.8333333333333,10.166666666666666
110.66666666666667,160.0,358.5,526.0,4.5
124.08333333333333,133.0,333.0,281.8333333333333,11.333333333333334
163.33333333333334,160.0,360.0,200.58333333333334,6.583333333333333
97.25,133.0,333.0,294.5,8.833333333333334
60.416666666666664,150.0,350.0,432.72727272727275,18.666666666666668
102.0,133.0,333.0,344.6666666666667,10.333333333333334
61.416666666666664,160.0,360.0,526.4166666666666,4.833333333333333
109.5,150.0,350.0,327.3333333333333,8.25
95.0,160.0,360.0,282.8181818181818,7.0
104.75,160.0,357.5,508.6363636363636,4.166666666666667
75.0,150.0,350.0,413.72727272727275,21.5
98.0,150.0,350.0,282.27272727272725,8.416666666666666
142.5,145.0,345.0,340.9166666666667,8.916666666666666
92.5,133.0,333.0,416.6,17.583333333333332
135.0,160.0,360.0,402.25,9.75
135.83333333333334,160.0,359.4166666666667,559.1,4.333333333333333
158.41666666666666,150.0,350.0,306.0833333333333,7.166666666666667
130.0,160.0,360.0,245.91666666666666,6.25
69.75,160.0,356.25,537.3636363636364,4.083333333333333
111.41666666666667,150.0,350.0,275.5,10.083333333333334
94.83333333333333,150.0,350.0,247.72727272727272,8.583333333333334
96.41666666666667,133.0,333.0,287.1818181818182,5.5
98.25,133.0,333.0,273.8181818181818,8.833333333333334
100.0,160.0,360.0,279.0833333333333,8.75
125.0,159.83333333333334,351.0833333333333,487.27272727272725,4.0
148.0,150.0,350.0,303.1666666666667,7.25
98.33333333333333,160.0,360.0,235.58333333333334,6.75
78.41666666666667,159.83333333333334,358.1666666666667,494.5,4.166666666666667
133.33333333333334,160.0,360.0,299.5,8.916666666666666
113.91666666666667,133.0,333.0,221.41666666666666,5.666666666666667
72.66666666666667,133.0,333.0,307.25,7.833333333333333
76.66666666666667,160.0,360.0,413.4166666666667,12.666666666666666
110.75,114.0,314.0,296.1666666666667,9.333333333333334
115.25,160.0,357.5,542.8181818181819,4.166666666666667
131.25,150.0,350.0,313.25,7.666666666666667
101.25,114.0,314.0,240.75,5.583333333333333
86.33333333333333,159.16666666666666,360.6666666666667,501.0,3.8333333333333335
124.0,150.0,350.0,294.72727272727275,9.333333333333334
106.41666666666667,133.0,333.0,198.66666666666666,3.6666666666666665
137.58333333333334,150.0,350.0,210.08333333333334,6.5
157.58333333333334,133.0,333.0,411.54545454545456,11.833333333333334
114.25,114.0,314.0,295.6666666666667,11.0
123.16666666666667,160.0,360.0,525.9166666666666,4.666666666666667
151.08333333333334,150.0,350.0,316.25,6.583333333333333
111.66666666666667,160.0,360.0,288.75,11.083333333333334
144.08333333333334,160.0,359.3333333333333,531.6666666666666,4.333333333333333
125.16666666666667,145.0,345.0,295.0,7.833333333333333
112.16666666666667,133.0,333.0,239.25,7.083333333333333
131.75,145.0,345.0,262.6666666666667,6.416666666666667
93.33333333333333,133.0,333.0,295.0833333333333,9.583333333333334
86.25,133.0,333.0,276.0,7.916666666666667
153.58333333333334,160.0,360.0,545.3333333333334,5.5
142.75,150.0,350.0,299.0,6.75
131.66666666666666,160.0,360.0,225.36363636363637,4.583333333333333
98.33333333333333,160.0,357.5,486.1818181818182,3.25
96.91666666666667,150.0,350.0,358.09090909090907,18.333333333333332
113.66666666666667,150.0,350.0,259.3636363636364,6.5
92.5,160.0,360.0,301.1818181818182,7.916666666666667
114.75,133.0,333.0,303.9166666666667,9.583333333333334
136.58333333333334,150.0,350.0,326.5833333333333,7.416666666666667
111.0,160.0,359.5833333333333,511.0,4.083333333333333
142.75,150.0,350.0,323.0833333333333,7.0
131.66666666666666,160.0,360.0,231.33333333333334,5.583333333333333
91.25,160.0,357.75,488.75,3.5833333333333335
138.91666666666666,133.0,333.0,227.9090909090909,8.166666666666666
128.08333333333334,150.0,350.0,230.41666666666666,8.0
125.83333333333333,160.0,360.0,260.9166666666667,6.25
110.16666666666667,133.0,333.0,308.3636363636364,9.833333333333334
159.75,133.0,333.0,296.1666666666667,11.166666666666666
142.41666666666666,160.0,360.0,548.7272727272727,4.833333333333333
126.08333333333333,150.0,350.0,334.75,8.5
107.0,133.0,333.0,238.0,4.916666666666667
61.416666666666664,159.83333333333334,360.5833333333333,504.25,3.9166666666666665
89.66666666666667,150.0,350.0,292.5833333333333,10.083333333333334
150.0,160.0,360.0,216.72727272727272,8.5
119.5,133.0,333.0,256.75,6.583333333333333
132.0,133.0,333.0,345.6363636363636,9.75
94.08333333333333,114.0,314.0,287.25,8.833333333333334
80.91666666666667,160.0,360.0,507.27272727272725,3.5
148.0,150.0,350.0,323.75,6.5
106.66666666666667,160.0,360.0,284.4166666666667,9.916666666666666
84.08333333333333,160.0,355.8333333333333,497.3636363636364,3.4166666666666665
120.83333333333333,133.0,333.0,200.83333333333334,6.5
124.16666666666667,160.0,360.0,211.41666666666666,5.166666666666667
106.66666666666667,160.0,360.0,306.75,9.333333333333334
56.25,133.0,333.0,418.3636363636364,18.166666666666668
106.0,114.0,314.0,307.0,10.166666666666666
117.58333333333333,160.0,360.0,533.8181818181819,4.666666666666667
144.83333333333334,150.0,350.0,298.75,7.583333333333333
108.33333333333333,160.0,360.0,272.09090909090907,7.666666666666667
137.66666666666666,160.0,359.0,523.75,4.666666666666667
165.83333333333334,160.0,360.0,367.8333333333333,12.166666666666666
140.66666666666666,133.0,333.0,253.27272727272728,8.416666666666666
106.33333333333333,150.0,350.0,203.0,4.916666666666667
78.16666666666667,150.0,350.0,375.1818181818182,16.166666666666668
133.33333333333334,150.0,350.0,307.4166666666667,6.166666666666667
144.08333333333334,160.0,360.0,559.9090909090909,4.833333333333333
130.33333333333334,150.0,350.0,317.4166666666667,7.333333333333333
88.33333333333333,160.0,360.0,312.25,12.0
129.16666666666666,160.0,360.0,547.5833333333334,5.083333333333333
107.33333333333333,133.0,333.0,269.25,9.666666666666666
116.75,133.0,333.0,220.45454545454547,5.5
130.58333333333334,133.0,333.0,263.9166666666667,7.333333333333333
68.33333333333333,133.0,333.0,413.75,22.416666666666668
117.5,160.0,360.0,406.6666666666667,8.666666666666666
84.58333333333333,160.0,356.8333333333333,479.0,3.8333333333333335
144.91666666666666,150.0,350.0,284.3333333333333,6.333333333333333
135.0,160.0,360.0,241.75,4.916666666666667
111.66666666666667,160.0,356.5,492.1818181818182,3.3333333333333335
100.08333333333333,150.0,350.0,286.90909090909093,10.083333333333334
144.41666666666666,133.0,333.0,243.0,5.666666666666667
140.83333333333334,133.0,333.0,245.83333333333334,6.25
110.58333333333333,114.0,314.0,245.5,8.75
77.33333333333333,114.0,314.0,303.0833333333333,8.916666666666666
107.41666666666667,160.0,360.0,489.3,3.6666666666666665
149.16666666666666,150.0,350.0,301.5,6.75
136.75,114.0,314.0,251.91666666666666,5.75
73.41666666666667,160.0,357.5,508.0,3.6666666666666665
126.25,150.0,350.0,294.5,9.75
140.83333333333334,160.0,360.0,316.22222222222223,6.333333333333333
130.75,133.0,333.0,272.5833333333333,7.333333333333333
131.0,145.0,345.0,358.3333333333333,12.0
103.5,114.0,314.0,239.91666666666666,5.75
147.08333333333334,160.0,360.0,544.0,5.25
151.16666666666666,150.0,350.0,301.5,6.916666666666667
138.83333333333334,133.0,333.0,218.41666666666666,5.416666666666667
95.75,160.0,355.4166666666667,515.1,3.5
109.5,150.0,350.0,270.7,7.416666666666667
145.0,160.0,360.0,210.0,5.416666666666667
125.0,150.0,350.0,197.58333333333334,5.0
107.41666666666667,145.0,345.0,426.27272727272725,15.833333333333334
132.16666666666666,114.0,314.0,297.0,10.25
114.58333333333333,160.0,359.0,542.8333333333334,4.75
140.66666666666666,150.0,350.0,325.5833333333333,7.25
120.0,160.0,360.0,227.0,5.5
113.41666666666667,160.0,356.8333333333333,524.3636363636364,3.5833333333333335
106.33333333333333,150.0,350.0,270.5833333333333,8.916666666666666
124.16666666666667,160.0,360.0,244.0909090909091,4.666666666666667
135.25,133.0,333.0,239.75,8.083333333333334
59.166666666666664,160.0,360.0,333.54545454545456,10.083333333333334
115.41666666666667,114.0,314.0,229.25,4.25
83.16666666666667,160.0,360.0,443.09090909090907,2.8333333333333335
156.25,150.0,350.0,304.25,7.416666666666667
101.66666666666667,160.0,360.0,271.1666666666667,8.166666666666666
143.0,160.0,357.9166666666667,555.7272727272727,4.666666666666667
77.08333333333333,150.0,350.0,386.4,11.916666666666666
128.33333333333334,160.0,360.0,185.45454545454547,5.666666666666667
119.41666666666667,133.0,333.0,222.5,9.333333333333334
68.91666666666667,114.0,314.0,383.0,14.583333333333334
86.83333333333333,114.0,314.0,249.16666666666666,6.25
123.75,160.0,360.0,549.5454545454545,4.5
146.91666666666666,150.0,350.0,326.25,7.583333333333333
106.66666666666667,160.0,360.0,275.75,10.083333333333334
137.66666666666666,160.0,357.9166666666667,533.2727272727273,4.666666666666667
131.08333333333334,145.0,345.0,377.8333333333333,13.166666666666666
115.66666666666667,150.0,350.0,295.5,11.166666666666666
137.5,160.0,360.0,269.25,5.833333333333333
102.75,133.0,333.0,245.54545454545453,6.333333333333333
116.58333333333333,133.0,333.0,283.8333333333333,8.833333333333334
113.75,160.0,358.5,523.3333333333334,4.833333333333333
143.83333333333334,150.0,350.0,308.3333333333333,6.833333333333333
119.41666666666667,133.0,333.0,248.16666666666666,6.583333333333333
105.5,160.0,356.25,506.0,3.6666666666666665
89.66666666666667,150.0,350.0,368.6363636363636,14.583333333333334
136.66666666666666,160.0,360.0,271.4166666666667,5.333333333333333
126.5,145.0,345.0,252.9,6.166666666666667
88.58333333333333,150.0,350.0,325.09090909090907,12.583333333333334
139.66666666666666,150.0,350.0,313.25,7.0
108.33333333333333,160.0,360.6666666666667,503.1666666666667,4.583333333333333
130.25,150.0,350.0,300.9166666666667,6.833333333333333
138.33333333333334,160.0,360.0,231.63636363636363,5.666666666666667
69.91666666666667,159.33333333333334,360.3333333333333,494.25,3.8333333333333335
91.58333333333333,133.0,333.0,365.5833333333333,16.583333333333332
92.5,133.0,333.0,305.3333333333333,10.5
122.25,133.0,333.0,240.08333333333334,6.416666666666667
104.25,150.0,350.0,293.9166666666667,11.166666666666666
125.16666666666667,150.0,350.0,322.6666666666667,6.75
118.33333333333333,160.0,360.0,493.3,3.8333333333333335
154.16666666666666,150.0,350.0,308.9166666666667,7.25
107.08333333333333,114.0,314.0,233.91666666666666,4.916666666666667
100.5,160.0,356.6666666666667,495.90909090909093,3.5
110.5,150.0,350.0,314.6363636363636,10.5
150.0,160.0,360.0,216.0909090909091,6.833333333333333
107.41666666666667,133.0,333.0,248.1818181818182,6.166666666666667
104.25,150.0,350.0,404.0,18.5
159.5,114.0,314.0,297.4166666666667,10.416666666666666
143.83333333333334,160.0,359.5833333333333,503.4166666666667,4.75
137.58333333333334,150.0,350.0,315.9166666666667,7.166666666666667
130.0,160.0,360.0,289.9166666666667,10.333333333333334
92.25,160.0,356.6666666666667,493.1,3.9166666666666665
96.33333333333333,114.0,314.0,304.09090909090907,15.0
160.0,160.0,360.0,211.83333333333334,8.75
127.16666666666667,150.0,350.0,248.27272727272728,7.25
108.33333333333333,150.0,350.0,320.90909090909093,11.75
157.0,114.0,314.0,302.5,10.833333333333334
143.75,160.0,358.5,555.3636363636364,5.166666666666667
143.75,150.0,350.0,318.25,7.5
116.66666666666667,160.0,360.0,255.08333333333334,6.75
127.5,159.33333333333334,349.75,476.9166666666667,3.8333333333333335
157.5,150.0,350.0,234.5,8.5
114.33333333333333,114.0,314.0,211.54545454545453,6.25
114.25,114.0,314.0,176.91666666666666,5.416666666666667
85.08333333333333,133.0,333.0,335.90909090909093,14.083333333333334
133.41666666666666,150.0,350.0,335.1666666666667,7.333333333333333
88.0,160.0,375.0,524.7272727272727,4.25
137.58333333333334,150.0,350.0,298.25,7.083333333333333
116.66666666666667,160.0,360.0,276.3333333333333,8.25
107.66666666666667,160.0,358.75,467.8,3.3333333333333335
117.58333333333333,133.0,333.0,256.6666666666667,7.833333333333333
114.41666666666667,114.0,314.0,220.5,9.5
128.16666666666666,150.0,350.0,269.45454545454544,8.0
98.83333333333333,114.0,314.0,266.3636363636364,11.416666666666666
84.58333333333333,114.0,314.0,243.58333333333334,6.416666666666667
129.16666666666666,160.0,360.0,559.7272727272727,4.916666666666667
144.83333333333334,150.0,350.0,320.8333333333333,7.666666666666667
131.66666666666666,160.0,360.0,218.83333333333334,5.166666666666667
144.5,160.0,357.0833333333333,564.3636363636364,4.75
127.16666666666667,150.0,350.0,313.3333333333333,11.416666666666666
88.58333333333333,150.0,350.0,260.25,6.25
87.16666666666667,145.0,345.0,322.09090909090907,10.583333333333334
82.16666666666667,114.0,314.0,376.09090909090907,15.25
115.5,114.0,314.0,254.16666666666666,6.416666666666667
137.16666666666666,160.0,360.0,526.6363636363636,4.25
151.08333333333334,150.0,350.0,316.1666666666667,7.583333333333333
116.66666666666667,160.0,360.0,268.75,7.0
135.58333333333334,160.0,358.75,494.75,3.8333333333333335
123.83333333333333,114.0,314.0,209.16666666666666,8.583333333333334
127.91666666666667,133.0,333.0,226.0,8.583333333333334
152.83333333333334,133.0,333.0,174.66666666666666,6.416666666666667
74.66666666666667,133.0,333.0,327.4166666666667,13.916666666666666
80.75,133.0,333.0,313.5,9.833333333333334
120.66666666666667,160.0,359.8333333333333,548.6363636363636,4.833333333333333
143.75,150.0,350.0,317.6666666666667,7.666666666666667
86.66666666666667,160.0,360.0,269.27272727272725,8.583333333333334
96.58333333333333,160.0,356.6666666666667,510.54545454545456,3.6666666666666665
89.08333333333333,133.0,333.0,206.16666666666666,8.083333333333334
117.66666666666667,133.0,333.0,242.63636363636363,7.083333333333333
138.0,133.0,333.0,267.0,6.916666666666667
93.41666666666667,133.0,333.0,310.5833333333333,10.916666666666666
101.5,133.0,333.0,281.8333333333333,9.333333333333334
94.75,160.0,358.5,550.3333333333334,4.5
139.75,150.0,350.0,317.0833333333333,7.083333333333333
120.83333333333333,133.0,333.0,226.58333333333334,5.5
85.83333333333333,160.0,359.0,548.5454545454545,4.166666666666667
136.5,150.0,350.0,294.5833333333333,11.583333333333334
138.33333333333334,160.0,360.0,182.3,5.0
107.33333333333333,133.0,333.0,242.8181818181818,6.333333333333333
131.33333333333334,150.0,350.0,234.66666666666666,5.0
116.58333333333333,114.0,314.0,277.25,8.083333333333334
136.25,160.0,355.8333333333333,519.7,4.0
129.16666666666666,150.0,350.0,308.25,6.25
91.66666666666667,160.0,360.0,253.16666666666666,7.083333333333333
118.25,160.0,356.6666666666667,551.3636363636364,3.8333333333333335
139.66666666666666,150.0,350.0,257.0833333333333,10.75
135.83333333333334,160.0,360.0,290.1,7.583333333333333
105.0,160.0,360.0,292.4166666666667,7.416666666666667
108.41666666666667,150.0,350.0,262.9166666666667,8.416666666666666
124.08333333333333,150.0,350.0,306.5,6.416666666666667
91.08333333333333,160.0,360.0,474.8333333333333,3.9166666666666665
148.08333333333334,150.0,350.0,319.8333333333333,8.333333333333334
138.33333333333334,160.0,360.0,277.8333333333333,9.416666666666666
81.66666666666667,160.0,357.5,502.77777777777777,3.25
112.0,133.0,333.0,292.2,9.0
129.16666666666666,133.0,333.0,207.0909090909091,7.166666666666667
128.75,145.0,345.0,262.45454545454544,4.583333333333333
93.91666666666667,114.0,314.0,280.7,11.583333333333334
125.08333333333333,150.0,350.0,348.5833333333333,9.916666666666666
78.66666666666667,160.0,360.0,529.6363636363636,3.8333333333333335
161.5,150.0,350.0,289.75,6.666666666666667
88.33333333333333,160.0,360.0,287.4166666666667,9.333333333333334
135.5,160.0,357.5,524.6363636363636,3.8333333333333335
123.0,150.0,350.0,325.3,12.083333333333334
134.41666666666666,150.0,350.0,244.25,7.666666666666667
145.83333333333334,133.0,333.0,172.16666666666666,6.25
83.33333333333333,160.0,360.0,391.45454545454544,11.5
117.83333333333333,150.0,350.0,306.8333333333333,5.916666666666667
91.25,160.0,357.0833333333333,555.9090909090909,4.166666666666667
158.41666666666666,150.0,350.0,304.75,7.75
98.83333333333333,133.0,333.0,245.41666666666666,6.166666666666667
59.75,160.0,360.8333333333333,513.4,3.6666666666666665
91.66666666666667,150.0,350.0,344.8181818181818,12.75
150.0,160.0,360.0,199.9090909090909,6.75
176.08333333333334,150.0,350.0,274.8333333333333,8.5
98.91666666666667,150.0,350.0,294.27272727272725,9.333333333333334
146.41666666666666,133.0,333.0,350.72727272727275,8.333333333333334
155.33333333333334,160.0,360.0,546.0909090909091,5.083333333333333
149.0,150.0,350.0,322.5,7.333333333333333
128.33333333333334,160.0,360.0,229.33333333333334,5.75
123.0,160.0,356.9166666666667,523.5454545454545,4.166666666666667
139.66666666666666,150.0,350.0,299.6,9.5
103.41666666666667,114.0,314.0,193.9090909090909,5.25
98.41666666666667,145.0,345.0,250.08333333333334,5.75
99.0,133.0,333.0,368.0,15.416666666666666
130.25,150.0,350.0,339.8333333333333,9.583333333333334
88.08333333333333,160.0,360.0,533.5833333333334,4.916666666666667
137.5,150.0,350.0,289.8333333333333,6.666666666666667
86.66666666666667,160.0,360.0,268.3333333333333,7.833333333333333
108.0,160.0,356.6666666666667,506.0,3.9166666666666665
95.33333333333333,114.0,314.0,320.4166666666667,12.5
101.16666666666667,133.0,333.0,201.0,5.5
119.5,133.0,333.0,282.6,8.916666666666666
141.66666666666666,133.0,333.0,335.4166666666667,10.333333333333334
131.33333333333334,150.0,350.0,353.0,9.75
130.83333333333334,160.0,360.0,515.5833333333334,4.5
150.91666666666666,150.0,350.0,329.4166666666667,6.666666666666667
110.0,160.0,360.0,272.0833333333333,7.666666666666667
69.08333333333333,160.0,356.8333333333333,420.1818181818182,3.4166666666666665
103.66666666666667,133.0,333.0,303.1818181818182,10.583333333333334
135.33333333333334,133.0,333.0,270.5,8.416666666666666
107.58333333333333,133.0,333.0,272.0,8.833333333333334
122.0,150.0,350.0,256.8181818181818,7.083333333333333
101.41666666666667,133.0,333.0,296.1666666666667,8.75
103.16666666666667,160.0,360.0,535.8181818181819,3.8333333333333335
151.16666666666666,150.0,350.0,318.75,7.333333333333333
91.66666666666667,160.0,360.0,277.6666666666667,8.0
124.0,160.0,358.75,499.0,3.8333333333333335
99.16666666666667,160.0,360.0,305.9166666666667,6.75
143.83333333333334,150.0,350.0,258.8181818181818,6.583333333333333
114.83333333333333,133.0,333.0,231.41666666666666,6.166666666666667
120.0,160.0,360.0,394.75,13.833333333333334
96.41666666666667,114.0,314.0,301.4166666666667,9.416666666666666
157.25,160.0,360.0,499.90909090909093,4.0
144.91666666666666,150.0,350.0,306.5,6.916666666666667
135.0,160.0,360.0,236.75,5.333333333333333
74.58333333333333,160.0,359.0,541.0,3.9166666666666665
94.16666666666667,160.0,360.0,311.5833333333333,7.666666666666667
129.33333333333334,150.0,350.0,245.36363636363637,5.833333333333333
100.75,133.0,333.0,220.5,6.083333333333333
104.83333333333333,133.0,330.9166666666667,354.0833333333333,10.583333333333334
109.16666666666667,160.0,360.0,392.5,8.583333333333334
115.25,160.0,360.0,575.8333333333334,5.166666666666667
146.91666666666666,150.0,350.0,303.9166666666667,6.333333333333333
133.33333333333334,160.0,360.0,253.83333333333334,6.75
118.08333333333333,160.0,357.9166666666667,536.7272727272727,4.416666666666667
122.66666666666667,114.0,314.0,255.63636363636363,10.416666666666666
134.41666666666666,150.0,350.0,236.6,7.0
119.0,114.0,314.0,227.58333333333334,7.833333333333333
138.91666666666666,133.0,333.0,332.25,10.333333333333334
136.91666666666666,114.0,314.0,299.8333333333333,10.75
131.08333333333334,160.0,360.0,557.1818181818181,5.333333333333333
138.58333333333334,150.0,350.0,315.5833333333333,7.833333333333333
148.33333333333334,160.0,360.0,280.75,9.916666666666666
117.08333333333333,160.0,357.9166666666667,545.0,4.666666666666667
114.16666666666667,160.0,360.0,365.09090909090907,9.916666666666666
113.58333333333333,150.0,350.0,228.08333333333334,6.083333333333333
106.08333333333333,145.0,345.0,216.08333333333334,5.25
113.83333333333333,133.0,333.0,293.4166666666667,8.25
109.5,150.0,350.0,380.5833333333333,11.25
120.16666666666667,160.0,360.0,526.7272727272727,4.416666666666667
140.66666666666666,150.0,350.0,292.0,6.5
103.33333333333333,160.0,360.0,274.0833333333333,8.916666666666666
102.41666666666667,160.0,359.1666666666667,529.4166666666666,3.8333333333333335
106.66666666666667,160.0,360.0,483.54545454545456,14.916666666666666
146.41666666666666,114.0,314.0,196.58333333333334,6.666666666666667
112.58333333333333,150.0,350.0,222.08333333333334,7.583333333333333
92.75,150.0,350.0,303.0833333333333,11.333333333333334
90.5,114.0,314.0,289.0,9.666666666666666
141.5,160.0,360.0,538.5,5.083333333333333
122.91666666666667,150.0,350.0,329.1666666666667,7.5
105.0,160.0,360.0,261.6666666666667,7.166666666666667
76.5,160.0,356.25,486.1,3.75
139.66666666666666,150.0,350.0,247.1,6.75
151.66666666666666,160.0,360.0,206.45454545454547,6.083333333333333
135.33333333333334,133.0,333.0,239.5,8.166666666666666
87.5,160.0,360.0,392.8181818181818,12.583333333333334
149.91666666666666,114.0,314.0,296.5833333333333,10.916666666666666
132.0,160.0,360.0,531.4166666666666,4.916666666666667
137.41666666666666,150.0,350.0,295.6666666666667,6.833333333333333
132.0,133.0,333.0,269.75,6.583333333333333
132.0,160.0,356.6666666666667,500.0,3.9166666666666665
89.66666666666667,150.0,350.0,344.3636363636364,14.25
133.41666666666666,133.0,333.0,204.1818181818182,6.5
127.25,145.0,345.0,302.5833333333333,8.333333333333334
94.41666666666667,133.0,333.0,263.8181818181818,9.416666666666666
126.16666666666667,150.0,350.0,347.75,10.416666666666666
116.0,160.0,360.0,507.75,4.916666666666667
133.33333333333334,150.0,350.0,313.5833333333333,6.833333333333333
105.0,160.0,360.0,262.25,7.666666666666667
90.75,160.0,354.1666666666667,464.3333333333333,3.8333333333333335
144.83333333333334,150.0,350.0,225.25,4.666666666666667
133.25,133.0,333.0,230.8,9.25
116.66666666666667,160.0,360.0,305.9166666666667,7.25
72.91666666666667,133.0,333.0,407.54545454545456,16.666666666666668
166.58333333333334,133.0,333.0,295.0833333333333,11.666666666666666
152.5,160.0,353.3333333333333,567.4545454545455,5.25
162.58333333333334,150.0,350.0,309.5833333333333,7.416666666666667
106.66666666666667,160.0,360.0,280.8333333333333,9.75
128.25,160.0,359.1666666666667,473.5,4.166666666666667
133.33333333333334,133.0,333.0,327.1666666666667,13.166666666666666
116.66666666666667,150.0,350.0,291.90909090909093,8.333333333333334
128.16666666666666,150.0,350.0,245.08333333333334,7.833333333333333
64.5,133.0,333.0,395.8333333333333,18.916666666666668
154.25,133.0,333.0,285.3333333333333,11.0
62.416666666666664,158.33333333333334,352.9166666666667,508.09090909090907,4.25
163.58333333333334,150.0,350.0,310.9166666666667,7.333333333333333
116.66666666666667,160.0,360.0,300.3333333333333,9.416666666666666
101.66666666666667,160.0,356.25,501.54545454545456,3.5833333333333335
146.16666666666666,145.0,345.0,292.45454545454544,6.5
128.16666666666666,150.0,350.0,211.8,4.166666666666667
127.16666666666667,150.0,350.0,299.9166666666667,12.166666666666666
108.41666666666667,150.0,350.0,260.25,8.916666666666666
141.91666666666666,133.0,333.0,363.75,9.916666666666666
125.41666666666667,160.0,359.3333333333333,559.25,4.75
137.5,150.0,350.0,286.5833333333333,6.25
126.66666666666667,160.0,360.0,250.0,6.166666666666667
74.5,160.0,355.3333333333333,502.1666666666667,4.0
126.25,150.0,350.0,278.6363636363636,9.583333333333334
109.58333333333333,150.0,350.0,245.66666666666666,6.166666666666667
140.83333333333334,160.0,360.0,253.91666666666666,5.333333333333333
138.0,133.0,333.0,270.4166666666667,8.416666666666666
117.91666666666667,114.0,314.0,313.3333333333333,11.75
133.41666666666666,160.0,359.1666666666667,527.25,4.833333333333333
134.41666666666666,150.0,350.0,287.8333333333333,6.416666666666667
120.0,160.0,360.0,234.33333333333334,5.916666666666667
121.25,160.0,358.3333333333333,534.6363636363636,4.5
100.08333333333333,150.0,350.0,332.4166666666667,16.0
130.0,160.0,360.0,286.1818181818182,6.666666666666667
125.66666666666667,154.0,354.0,295.3333333333333,6.166666666666667
78.5,133.0,333.0,427.3636363636364,16.583333333333332
114.41666666666667,114.0,314.0,248.0,6.833333333333333
132.08333333333334,160.0,360.0,531.5833333333334,5.166666666666667
143.83333333333334,150.0,350.0,302.3333333333333,7.5
108.33333333333333,160.0,360.0,283.8333333333333,9.916666666666666
80.41666666666667,159.58333333333334,357.6666666666667,517.5454545454545,4.166666666666667
136.58333333333334,150.0,350.0,286.1666666666667,12.083333333333334
155.0,160.0,360.0,202.83333333333334,7.083333333333333
105.25,145.0,345.0,286.0833333333333,7.583333333333333
76.08333333333333,150.0,350.0,378.45454545454544,14.75
83.25,114.0,314.0,287.8333333333333,9.166666666666666
64.66666666666667,160.0,357.5,517.3333333333334,4.083333333333333
136.5,150.0,350.0,320.9166666666667,8.0
88.33333333333333,160.0,360.0,291.6666666666667,9.666666666666666
72.0,160.0,356.8333333333333,538.6363636363636,4.0
143.83333333333334,150.0,350.0,273.72727272727275,10.0
105.0,160.0,360.0,275.0,8.0
99.0,150.0,350.0,285.75,10.083333333333334
76.63636363636364,114.0,314.0,251.7,10.166666666666666
132.41666666666666,150.0,350.0,342.5833333333333,8.083333333333334
141.41666666666666,160.0,360.0,546.5,4.916666666666667
144.75,150.0,350.0,316.8333333333333,7.166666666666667
108.33333333333333,160.0,360.0,269.9166666666667,9.25
122.75,158.75,340.8333333333333,469.90909090909093,3.25
137.5,150.0,350.0,284.5833333333333,9.75
140.0,160.0,360.0,216.8,6.166666666666667
106.66666666666667,160.0,360.0,281.1666666666667,7.666666666666667
102.08333333333333,150.0,350.0,418.0,16.333333333333332
159.75,133.0,333.0,286.4166666666667,11.25
103.41666666666667,160.0,355.8333333333333,490.5,3.5833333333333335
142.66666666666666,150.0,350.0,312.25,7.0
110.0,160.0,360.0,255.0909090909091,6.5
74.41666666666667,160.0,357.9166666666667,500.90909090909093,3.8333333333333335
93.83333333333333,150.0,350.0,355.4,13.916666666666666
114.58333333333333,150.0,350.0,220.08333333333334,6.416666666666667
119.58333333333333,145.0,345.0,312.8333333333333,9.333333333333334
106.25,150.0,350.0,277.0,10.083333333333334
137.58333333333334,150.0,350.0,317.6666666666667,7.666666666666667
117.83333333333333,160.0,359.8333333333333,531.2727272727273,4.0
145.0,150.0,350.0,303.4166666666667,7.083333333333333
129.16666666666666,133.0,333.0,256.8333333333333,5.833333333333333
93.5,160.0,356.6666666666667,509.7,3.8333333333333335
105.25,150.0,350.0,277.3636363636364,8.333333333333334
92.83333333333333,114.0,314.0,202.8181818181818,5.666666666666667
100.0,114.0,314.0,234.36363636363637,6.916666666666667
64.58333333333333,133.0,333.0,412.72727272727275,16.75
92.91666666666667,114.0,314.0,308.4166666666667,9.666666666666666
120.75,160.0,360.0,539.1818181818181,4.833333333333333
130.33333333333334,150.0,350.0,323.4166666666667,6.75
112.58333333333333,133.0,333.0,244.91666666666666,6.333333333333333
117.16666666666667,160.0,361.25,509.54545454545456,4.083333333333333
82.5,150.0,350.0,344.4166666666667,13.166666666666666
134.0,145.0,345.0,264.6666666666667,5.166666666666667
110.5,150.0,350.0,207.33333333333334,5.0
109.58333333333333,150.0,350.0,273.6363636363636,7.833333333333333
96.33333333333333,114.0,314.0,276.0833333333333,7.666666666666667
115.58333333333333,160.0,356.6666666666667,542.6363636363636,4.333333333333333
141.75,150.0,350.0,300.25,7.0
127.75,133.0,333.0,256.72727272727275,6.0
103.58333333333333,160.0,355.0,498.75,3.8333333333333335
79.54545454545455,150.0,350.0,311.8181818181818,11.916666666666666
104.83333333333333,114.0,314.0,207.77777777777777,6.166666666666667
109.33333333333333,133.0,333.0,215.08333333333334,5.833333333333333
118.58333333333333,133.0,333.0,283.45454545454544,8.5
136.58333333333334,150.0,350.0,314.4166666666667,6.833333333333333
119.58333333333333,160.0,360.0,523.5,4.083333333333333
145.91666666666666,150.0,350.0,302.75,7.416666666666667
98.33333333333333,160.0,360.0,256.1666666666667,7.333333333333333
79.08333333333333,160.0,359.1666666666667,511.5,4.166666666666667
150.08333333333334,150.0,350.0,290.0,8.0
135.0,160.0,360.0,188.83333333333334,6.083333333333333
134.33333333333334,133.0,333.0,242.5,9.166666666666666
85.0,133.0,333.0,398.27272727272725,16.083333333333332
132.33333333333334,150.0,350.0,344.5,10.666666666666666
124.66666666666667,160.0,360.0,521.4166666666666,4.916666666666667
128.16666666666666,150.0,350.0,305.75,7.333333333333333
96.66666666666667,160.0,360.0,251.36363636363637,7.833333333333333
114.5,160.0,360.8333333333333,543.25,5.0
111.41666666666667,150.0,350.0,316.3636363636364,13.0
166.66666666666666,150.0,350.0,236.5,4.5
129.58333333333334,133.0,333.0,267.6666666666667,10.333333333333334
72.08333333333333,133.0,333.0,436.0,18.166666666666668
90.33333333333333,114.0,314.0,308.75,9.583333333333334
65.83333333333333,160.0,360.0,569.8181818181819,4.666666666666667
135.41666666666666,150.0,350.0,317.0,7.5
115.16666666666667,133.0,333.0,247.33333333333334,6.583333333333333
131.83333333333334,160.0,359.0,533.75,4.666666666666667
118.83333333333333,150.0,350.0,249.9,5.5
105.33333333333333,150.0,350.0,252.75,6.666666666666667
102.08333333333333,150.0,350.0,286.3333333333333,8.666666666666666
111.45454545454545,145.0,345.0,455.3,14.083333333333334
107.08333333333333,114.0,314.0,269.0,7.583333333333333
128.41666666666666,160.0,358.5,526.5833333333334,4.5
138.58333333333334,150.0,350.0,323.0,7.0
96.66666666666667,160.0,360.0,268.4166666666667,6.916666666666667
91.91666666666667,160.0,357.9166666666667,542.7272727272727,4.0
117.75,114.0,314.0,207.63636363636363,8.416666666666666
125.0,133.0,333.0,234.25,9.916666666666666
111.83333333333333,114.0,314.0,206.8181818181818,6.75
72.91666666666667,150.0,350.0,418.5,20.333333333333332
125.08333333333333,133.0,333.0,293.25,11.416666666666666
146.83333333333334,160.0,358.75,549.1818181818181,5.166666666666667
131.33333333333334,150.0,350.0,320.5,7.5
110.0,160.0,360.0,252.75,6.0
70.16666666666667,160.0,357.9166666666667,496.75,3.9166666666666665
155.33333333333334,150.0,350.0,283.1818181818182,9.833333333333334
171.83333333333334,150.0,350.0,245.9090909090909,6.916666666666667
100.83333333333333,133.0,333.0,273.8333333333333,9.166666666666666
124.0,150.0,350.0,266.0,8.75
101.41666666666667,133.0,333.0,276.5833333333333,7.666666666666667
89.83333333333333,160.0,360.0,529.3636363636364,4.0
147.91666666666666,150.0,350.0,312.0,7.666666666666667
131.66666666666666,160.0,360.0,244.75,6.0
77.83333333333333,160.0,359.0,515.0833333333334,3.6666666666666665
101.66666666666667,160.0,360.0,356.8333333333333,11.083333333333334
124.91666666666667,150.0,350.0,253.5,7.166666666666667
112.16666666666667,133.0,333.0,231.16666666666666,6.0
101.41666666666667,133.0,333.0,335.5833333333333,9.666666666666666
142.75,150.0,350.0,319.6666666666667,6.416666666666667
106.41666666666667,160.0,360.0,468.6666666666667,4.166666666666667
145.08333333333334,150.0,350.0,327.4166666666667,7.083333333333333
105.0,160.0,360.0,286.25,9.916666666666666
119.83333333333333,160.0,357.0833333333333,503.09090909090907,3.75
114.0,133.0,333.0,295.5833333333333,11.75
170.0,160.0,360.0,205.66666666666666,6.416666666666667
105.83333333333333,114.0,314.0,207.4,6.666666666666667
93.83333333333333,150.0,350.0,300.3636363636364,9.583333333333334
96.41666666666667,114.0,314.0,284.4166666666667,7.25
128.0,160.0,360.0,537.8181818181819,4.25
130.25,150.0,350.0,334.0,7.25
138.33333333333334,160.0,360.0,236.16666666666666,5.916666666666667
116.66666666666667,160.0,356.6666666666667,539.8,4.083333333333333
130.25,150.0,350.0,262.3636363636364,9.083333333333334
130.0,160.0,360.0,217.8181818181818,7.0
124.91666666666667,133.0,333.0,179.41666666666666,6.083333333333333
122.0,150.0,350.0,313.8888888888889,10.416666666666666
102.83333333333333,133.0,333.0,281.5833333333333,7.916666666666667
101.16666666666667,160.0,359.0,522.0,4.25
156.33333333333334,150.0,350.0,296.5,6.75
129.08333333333334,133.0,333.0,237.0,4.833333333333333
102.5,160.0,357.0833333333333,516.2,3.4166666666666665
145.54545454545453,150.0,350.0,242.0,6.583333333333333
140.16666666666666,133.0,333.0,184.1818181818182,5.25
101.0,133.0,333.0,260.75,6.416666666666667
92.5,160.0,360.0,396.1818181818182,12.75
103.58333333333333,114.0,314.0,301.4166666666667,9.333333333333334
117.83333333333333,160.0,358.5,548.0,4.75
147.91666666666666,150.0,350.0,294.0,6.5
113.33333333333333,160.0,360.0,249.25,6.083333333333333
75.58333333333333,158.75,358.1666666666667,475.5,3.6666666666666665
133.33333333333334,114.0,314.0,221.72727272727272,9.25
118.33333333333333,160.0,360.0,248.0,5.916666666666667
93.25,145.0,345.0,263.3333333333333,5.666666666666667
120.83333333333333,150.0,350.0,284.54545454545456,8.333333333333334
84.41666666666667,114.0,314.0,280.0,6.916666666666667
128.0,160.0,360.0,519.7,4.0
144.75,150.0,350.0,317.0833333333333,7.666666666666667
98.33333333333333,160.0,360.0,254.08333333333334,7.25
121.66666666666667,160.0,357.0833333333333,515.9090909090909,4.083333333333333
119.83333333333333,150.0,350.0,253.75,10.083333333333334
108.25,133.0,333.0,264.72727272727275,8.25
104.16666666666667,150.0,350.0,254.27272727272728,7.083333333333333
111.5,150.0,350.0,229.91666666666666,6.333333333333333
134.5,150.0,350.0,306.9166666666667,6.416666666666667
101.5,160.0,360.0,543.6363636363636,4.0
133.33333333333334,150.0,350.0,307.6666666666667,7.166666666666667
113.33333333333333,160.0,360.0,251.0,6.416666666666667
114.58333333333333,159.58333333333334,355.4166666666667,502.45454545454544,4.083333333333333
129.08333333333334,133.0,333.0,216.0,6.75
100.91666666666667,133.0,333.0,281.09090909090907,9.5
109.75,133.0,333.0,272.27272727272725,5.666666666666667
98.16666666666667,133.0,333.0,298.09090909090907,10.166666666666666
110.66666666666667,114.0,314.0,238.9,5.666666666666667
93.41666666666667,160.0,358.3333333333333,519.9,3.9166666666666665
154.25,150.0,350.0,322.8333333333333,7.166666666666667
128.33333333333334,160.0,360.0,242.08333333333334,5.833333333333333
87.25,160.0,354.3333333333333,499.1818181818182,3.75
87.83333333333333,133.0,333.0,305.75,9.416666666666666
141.75,133.0,333.0,223.63636363636363,9.666666666666666
129.83333333333334,133.0,333.0,260.75,6.25
139.25,154.0,354.0,355.5833333333333,11.0
84.41666666666667,114.0,314.0,314.54545454545456,8.916666666666666
104.58333333333333,160.0,362.0833333333333,540.3636363636364,4.666666666666667
133.41666666666666,150.0,350.0,318.6666666666667,7.916666666666667
119.5,133.0,333.0,212.08333333333334,5.25
97.66666666666667,160.0,361.25,491.4,3.5
120.91666666666667,150.0,350.0,286.54545454545456,10.333333333333334
119.41666666666667,133.0,333.0,211.72727272727272,5.666666666666667
106.58333333333333,133.0,333.0,248.08333333333334,7.166666666666667
117.83333333333333,150.0,350.0,316.8,9.166666666666666
132.08333333333334,114.0,314.0,308.3333333333333,11.0
107.41666666666667,160.0,357.5,550.9166666666666,4.583333333333333
134.41666666666666,150.0,350.0,324.3333333333333,7.5
110.0,160.0,360.0,284.54545454545456,10.583333333333334
87.25,160.0,356.6666666666667,483.0,3.6666666666666665
79.25,150.0,350.0,306.25,9.25
132.33333333333334,150.0,350.0,258.4166666666667,5.75
124.16666666666667,145.0,345.0,305.0,8.666666666666666
64.5,133.0,333.0,394.0,15.666666666666666
131.25,150.0,350.0,309.4166666666667,5.833333333333333
117.0,160.0,353.75,473.8181818181818,3.8333333333333335
144.83333333333334,150.0,350.0,300.75,7.166666666666667
125.0,160.0,360.0,256.3333333333333,6.666666666666667
81.5,160.0,359.3333333333333,564.7272727272727,3.9166666666666665
134.5,114.0,314.0,221.0,8.333333333333334
138.33333333333334,160.0,360.0,288.4166666666667,7.833333333333333
131.58333333333334,133.0,333.0,206.25,5.75
127.66666666666667,154.0,354.0,407.25,12.166666666666666
141.75,133.0,333.0,352.75,10.166666666666666
102.16666666666667,160.0,357.0833333333333,476.09090909090907,3.4166666666666665
131.33333333333334,150.0,350.0,321.6666666666667,7.666666666666667
131.66666666666666,160.0,360.0,246.75,6.083333333333333
139.33333333333334,160.0,357.5,493.6363636363636,3.6666666666666665
129.75,114.0,314.0,192.36363636363637,6.5
104.5,133.0,333.0,242.8,6.666666666666667
129.16666666666666,160.0,360.0,245.08333333333334,6.166666666666667
88.08333333333333,114.0,314.0,323.5,18.25
135.66666666666666,114.0,314.0,288.5833333333333,10.583333333333334
136.75,160.0,359.0,548.5,5.25
144.91666666666666,150.0,350.0,292.0,6.083333333333333
95.0,160.0,360.0,295.6666666666667,10.833333333333334
118.58333333333333,160.0,359.0,501.25,4.25
100.83333333333333,160.0,360.0,412.45454545454544,12.916666666666666
104.16666666666667,150.0,350.0,241.08333333333334,7.416666666666667
124.33333333333333,154.0,354.0,290.5833333333333,7.416666666666667
87.5,150.0,350.0,395.3636363636364,15.833333333333334
85.66666666666667,114.0,314.0,290.8333333333333,8.75
119.91666666666667,160.0,360.0,506.5833333333333,5.0
141.75,150.0,350.0,323.9166666666667,8.166666666666666
125.0,160.0,360.0,227.72727272727272,5.833333333333333
106.66666666666667,160.0,359.3333333333333,494.8333333333333,4.0
100.0,150.0,350.0,310.9166666666667,13.166666666666666
129.16666666666666,160.0,360.0,321.5,9.583333333333334
102.75,133.0,333.0,279.25,8.75
106.25,133.0,333.0,422.3,16.916666666666668
102.33333333333333,114.0,314.0,284.25,8.333333333333334
141.91666666666666,159.16666666666666,359.0,524.8333333333334,5.166666666666667
138.58333333333334,150.0,350.0,316.5,7.666666666666667
111.66666666666667,160.0,360.0,245.41666666666666,6.75
129.16666666666666,160.0,358.3333333333333,507.9166666666667,4.416666666666667
115.33333333333333,114.0,314.0,220.9090909090909,10.416666666666666
104.58333333333333,133.0,333.0,246.9,6.75
123.75,133.0,333.0,199.83333333333334,8.333333333333334
96.83333333333333,145.0,345.0,413.4166666666667,14.166666666666666
132.0,114.0,314.0,301.75,11.5
111.5,160.0,356.8333333333333,549.5833333333334,4.5
141.66666666666666,150.0,350.0,301.5833333333333,7.083333333333333
88.33333333333333,160.0,360.0,290.3333333333333,7.833333333333333
128.5,160.0,361.6666666666667,523.1818181818181,4.25
93.83333333333333,150.0,350.0,412.5,15.583333333333334
139.58333333333334,150.0,350.0,246.0,5.5
120.83333333333333,160.0,360.0,207.0,4.666666666666667
85.08333333333333,133.0,333.0,334.90909090909093,10.416666666666666
148.5,133.0,333.0,290.25,11.166666666666666
136.25,160.0,360.0,535.9090909090909,4.916666666666667
137.58333333333334,150.0,350.0,321.5,7.583333333333333
118.33333333333333,160.0,360.0,277.0833333333333,9.916666666666666
123.16666666666667,160.0,357.0833333333333,519.2727272727273,3.75
94.91666666666667,150.0,350.0,345.09090909090907,11.916666666666666
119.08333333333333,114.0,314.0,208.8181818181818,7.083333333333333
100.0,154.0,354.0,302.0833333333333,7.166666666666667
100.08333333333333,150.0,350.0,281.1666666666667,10.0
120.83333333333333,133.0,333.0,301.6666666666667,11.333333333333334
130.58333333333334,160.0,360.0,513.9166666666666,4.666666666666667
140.66666666666666,150.0,350.0,299.3333333333333,7.25
93.33333333333333,160.0,360.0,247.25,6.916666666666667
95.5,160.0,360.8333333333333,499.6666666666667,3.4166666666666665
134.33333333333334,150.0,350.0,322.0,10.083333333333334
151.66666666666666,160.0,360.0,187.27272727272728,6.0
108.33333333333333,154.0,354.0,337.3333333333333,9.166666666666666
103.08333333333333,145.0,345.0,370.9166666666667,10.583333333333334
115.75,150.0,350.0,362.3333333333333,9.916666666666666
81.66666666666667,160.0,357.0833333333333,497.0,3.75
134.33333333333334,150.0,350.0,320.1666666666667,7.166666666666667
110.0,160.0,360.0,257.09090909090907,7.25
75.41666666666667,160.0,356.6666666666667,515.0909090909091,3.8333333333333335
109.41666666666667,150.0,350.0,259.0833333333333,8.833333333333334
117.83333333333333,150.0,350.0,267.72727272727275,9.25
119.58333333333333,133.0,333.0,271.90909090909093,8.25
102.25,150.0,350.0,326.90909090909093,11.166666666666666
97.58333333333333,114.0,314.0,304.0,9.5
70.33333333333333,160.0,356.8333333333333,523.8333333333334,3.9166666666666665
163.58333333333334,150.0,350.0,310.0833333333333,7.166666666666667
85.0,160.0,360.0,291.6666666666667,8.916666666666666
110.75,159.0,357.6666666666667,474.1666666666667,3.8333333333333335
86.58333333333333,150.0,350.0,367.54545454545456,10.75
154.16666666666666,133.0,333.0,201.5,6.333333333333333
110.25,133.0,333.0,229.22222222222223,4.416666666666667
76.75,133.0,333.0,409.1818181818182,17.916666666666668
131.25,150.0,350.0,313.9166666666667,5.916666666666667
124.16666666666667,160.0,360.0,497.8181818181818,3.8333333333333335
151.16666666666666,150.0,350.0,315.4166666666667,7.416666666666667
128.33333333333334,160.0,360.0,244.16666666666666,5.583333333333333
131.41666666666666,160.0,361.6666666666667,532.4,3.9166666666666665
102.08333333333333,150.0,350.0,364.72727272727275,16.0
140.33333333333334,133.0,333.0,214.8,5.75
115.25,133.0,333.0,247.08333333333334,5.666666666666667
88.08333333333333,114.0,314.0,363.27272727272725,13.75
121.83333333333333,150.0,350.0,359.6666666666667,10.666666666666666
140.91666666666666,160.0,358.75,515.5,4.75
141.75,150.0,350.0,314.25,7.416666666666667
116.66666666666667,160.0,360.0,249.33333333333334,7.0
123.66666666666667,160.0,357.9166666666667,522.0,4.25
117.83333333333333,150.0,350.0,277.6666666666667,10.666666666666666
123.41666666666667,145.0,345.0,248.0,6.333333333333333
112.91666666666667,114.0,314.0,225.5,8.0
92.5,160.0,360.0,370.75,17.166666666666668
88.0,114.0,314.0,311.72727272727275,11.166666666666666
139.16666666666666,160.0,360.6666666666667,493.4166666666667,4.416666666666667
139.66666666666666,150.0,350.0,299.75,6.333333333333333
115.0,160.0,360.0,221.41666666666666,5.75
99.5,160.0,361.0,539.0833333333334,4.25
118.33333333333333,160.0,360.0,329.0,9.083333333333334
121.33333333333333,133.0,333.0,263.54545454545456,7.75
96.33333333333333,133.0,333.0,266.9166666666667,8.166666666666666
145.0,133.0,333.0,348.8333333333333,12.416666666666666
112.58333333333333,150.0,350.0,339.5,8.666666666666666
123.33333333333333,160.0,360.0,509.0,4.583333333333333
141.83333333333334,150.0,350.0,312.8333333333333,7.333333333333333
136.0,133.0,333.0,235.25,4.833333333333333
106.16666666666667,160.0,368.5833333333333,500.54545454545456,3.4166666666666665
95.83333333333333,150.0,350.0,319.5833333333333,11.5
123.75,114.0,314.0,188.6,4.333333333333333
127.75,133.0,333.0,196.91666666666666,4.5
119.16666666666667,160.0,360.0,463.1111111111111,16.083333333333332
135.5,150.0,350.0,364.5,10.333333333333334
138.58333333333334,160.0,359.1666666666667,536.4545454545455,4.583333333333333
136.41666666666666,150.0,350.0,295.5833333333333,7.083333333333333
140.25,133.0,333.0,220.33333333333334,5.583333333333333
105.83333333333333,160.0,356.6666666666667,521.8181818181819,3.5
112.91666666666667,133.0,333.0,329.1666666666667,14.416666666666666
103.16666666666667,150.0,350.0,242.58333333333334,6.416666666666667
99.91666666666667,114.0,314.0,187.5,5.666666666666667
95.83333333333333,150.0,350.0,263.8333333333333,8.75
120.83333333333333,150.0,350.0,325.09090909090907,6.75
80.58333333333333,160.0,360.0,515.4545454545455,4.166666666666667
151.08333333333334,114.0,314.0,264.25,7.833333333333333
96.66666666666667,160.0,360.0,291.0,8.833333333333334
111.58333333333333,160.0,357.5,557.2727272727273,4.25
126.0,150.0,350.0,299.6666666666667,12.083333333333334
108.41666666666667,114.0,314.0,196.16666666666666,5.333333333333333
71.33333333333333,145.0,345.0,331.5833333333333,8.833333333333334
155.16666666666666,154.0,354.0,397.1666666666667,12.166666666666666
125.08333333333333,150.0,350.0,294.6666666666667,5.75
123.16666666666667,160.0,360.0,521.1818181818181,4.083333333333333
154.33333333333334,150.0,350.0,302.0,7.166666666666667
88.33333333333333,160.0,360.0,272.25,8.083333333333334
136.16666666666666,159.33333333333334,351.0,556.75,4.833333333333333
136.66666666666666,133.0,333.0,309.3636363636364,8.833333333333334
92.58333333333333,133.0,333.0,194.1818181818182,4.75
127.75,133.0,333.0,262.5,5.583333333333333
71.25,133.0,333.0,314.4166666666667,9.916666666666666
139.16666666666666,160.0,360.0,335.0833333333333,5.5
129.41666666666666,160.0,359.1666666666667,528.4545454545455,4.333333333333333
147.91666666666666,150.0,350.0,286.4166666666667,6.833333333333333
105.66666666666667,133.0,333.0,274.1666666666667,7.416666666666667
91.33333333333333,160.0,357.0833333333333,489.09090909090907,3.6666666666666665
90.75,133.0,333.0,349.0,13.083333333333334
122.5,160.0,360.0,269.4166666666667,7.333333333333333
128.66666666666666,133.0,333.0,255.16666666666666,7.083333333333333
99.16666666666667,133.0,333.0,316.72727272727275,10.083333333333334
150.08333333333334,150.0,350.0,281.5833333333333,5.583333333333333
105.16666666666667,160.0,360.0,498.3636363636364,3.75
145.91666666666666,150.0,350.0,318.6666666666667,8.25
100.0,160.0,360.0,280.0,7.166666666666667
122.33333333333333,160.0,356.25,515.1818181818181,3.75
138.08333333333334,133.0,333.0,315.1818181818182,7.583333333333333
113.0,133.0,333.0,243.72727272727272,6.75
119.91666666666667,150.0,350.0,209.16666666666666,6.083333333333333
78.45454545454545,150.0,350.0,340.0,14.333333333333334
119.91666666666667,150.0,350.0,344.0,7.75
121.66666666666667,160.0,360.0,528.6666666666666,5.166666666666667
126.08333333333333,150.0,350.0,314.5,7.0
126.66666666666667,160.0,360.0,250.33333333333334,6.166666666666667
129.08333333333334,160.0,358.75,523.9090909090909,4.25
149.0,133.0,333.0,242.91666666666666,8.916666666666666
111.66666666666667,160.0,360.0,186.33333333333334,6.25
125.0,114.0,314.0,184.25,7.25
86.75,114.0,314.0,385.09090909090907,17.166666666666668
92.75,114.0,314.0,316.9166666666667,10.5
111.08333333333333,160.0,353.3333333333333,543.9090909090909,4.416666666666667
132.33333333333334,150.0,350.0,312.9166666666667,7.333333333333333
103.33333333333333,160.0,360.0,268.27272727272725,7.083333333333333
93.08333333333333,160.0,359.1666666666667,484.4166666666667,3.5
121.08333333333333,150.0,350.0,279.0833333333333,10.333333333333334
138.1818181818182,160.0,360.0,189.0909090909091,5.416666666666667
134.0,154.0,354.0,342.3636363636364,10.083333333333334
80.83333333333333,160.0,360.0,395.8333333333333,12.0
119.83333333333333,150.0,350.0,362.9166666666667,11.0
110.91666666666667,160.0,359.1666666666667,549.7272727272727,4.333333333333333
151.16666666666666,150.0,350.0,304.4166666666667,7.083333333333333
116.66666666666667,160.0,360.0,226.91666666666666,6.0
78.66666666666667,160.0,355.8333333333333,525.0,4.166666666666667
108.33333333333333,160.0,360.0,362.3333333333333,12.916666666666666
133.33333333333334,114.0,314.0,237.5,8.416666666666666
89.66666666666667,133.0,333.0,234.75,7.166666666666667
57.333333333333336,150.0,350.0,416.45454545454544,17.833333333333332
122.91666666666667,150.0,350.0,363.25,11.083333333333334
130.83333333333334,160.0,357.5,569.0909090909091,4.833333333333333
146.08333333333334,150.0,350.0,298.25,6.0
125.0,160.0,360.0,244.0,5.666666666666667
103.75,160.0,358.5,469.72727272727275,3.4166666666666665
105.83333333333333,114.0,314.0,234.66666666666666,7.916666666666667
102.08333333333333,150.0,350.0,243.41666666666666,7.583333333333333
86.5,150.0,350.0,287.0,8.333333333333334
148.66666666666666,154.0,354.0,377.0833333333333,11.916666666666666
129.25,150.0,350.0,335.5,7.666666666666667
148.66666666666666,159.83333333333334,359.8333333333333,539.9090909090909,5.083333333333333
153.16666666666666,150.0,350.0,291.5833333333333,6.75
90.0,160.0,360.0,298.4,7.75
134.25,160.0,357.9166666666667,549.3636363636364,4.333333333333333
131.25,150.0,350.0,291.3636363636364,9.333333333333334
126.25,114.0,314.0,232.16666666666666,8.666666666666666
121.66666666666667,160.0,360.0,288.3333333333333,6.916666666666667
154.66666666666666,154.0,354.0,395.5833333333333,14.0
151.08333333333334,150.0,350.0,354.4166666666667,10.916666666666666
128.5,160.0,359.0,570.4166666666666,5.0
135.41666666666666,150.0,350.0,310.3333333333333,6.916666666666667
111.66666666666667,160.0,360.0,244.91666666666666,7.083333333333333
141.25,160.0,359.0,517.6666666666666,4.666666666666667
141.66666666666666,160.0,360.0,231.25,10.416666666666666
104.83333333333333,114.0,314.0,198.83333333333334,7.75
141.58333333333334,133.0,333.0,297.3333333333333,7.666666666666667
102.08333333333333,150.0,350.0,428.7,14.416666666666666
70.25,114.0,314.0,287.9166666666667,10.166666666666666
136.16666666666666,160.0,360.0,545.9090909090909,5.0
138.5,150.0,350.0,307.0833333333333,6.666666666666667
135.0,160.0,360.0,228.75,5.583333333333333
89.08333333333333,160.0,357.0833333333333,511.1818181818182,3.5
139.58333333333334,150.0,350.0,268.8181818181818,8.166666666666666
124.0,150.0,350.0,212.8181818181818,5.666666666666667
104.25,150.0,350.0,278.1818181818182,8.416666666666666
118.33333333333333,160.0,360.0,383.2,13.0
134.41666666666666,150.0,350.0,364.0,10.416666666666666
152.41666666666666,160.0,358.75,548.4545454545455,5.166666666666667
141.75,150.0,350.0,319.6666666666667,7.916666666666667
111.66666666666667,160.0,360.0,236.25,5.666666666666667
81.41666666666667,160.0,361.25,531.9090909090909,3.75
88.91666666666667,133.0,333.0,379.4166666666667,15.75
140.25,133.0,333.0,241.8181818181818,10.5
118.33333333333333,160.0,360.0,281.09090909090907,6.166666666666667
73.33333333333333,160.0,360.0,434.1818181818182,18.583333333333332
111.83333333333333,114.0,314.0,266.1666666666667,7.75
135.58333333333334,160.0,360.0,529.5833333333334,5.0
136.5,150.0,350.0,293.3333333333333,7.0
107.0,133.0,333.0,236.66666666666666,5.0
120.25,160.0,356.6666666666667,471.45454545454544,3.5
140.33333333333334,114.0,314.0,214.3,8.416666666666666
129.25,150.0,350.0,265.27272727272725,7.083333333333333
75.91666666666667,145.0,345.0,310.8333333333333,8.75
89.16666666666667,160.0,360.0,342.4166666666667,12.083333333333334
115.16666666666667,145.0,345.0,356.4166666666667,6.666666666666667
114.33333333333333,160.0,360.0,558.0,4.833333333333333
139.58333333333334,150.0,350.0,319.5833333333333,7.833333333333333
88.33333333333333,160.0,360.0,272.75,8.0
141.91666666666666,160.0,360.8333333333333,543.2727272727273,4.0
98.08333333333333,133.0,333.0,296.5833333333333,11.25
133.33333333333334,150.0,350.0,261.5,6.333333333333333
106.33333333333333,154.0,354.0,343.1666666666667,9.333333333333334
136.5,150.0,350.0,264.8181818181818,7.666666666666667
139.66666666666666,150.0,350.0,321.75,7.083333333333333
110.41666666666667,160.0,360.0,515.8181818181819,3.8333333333333335
131.25,150.0,350.0,315.0833333333333,7.416666666666667
120.0,160.0,360.0,275.25,9.75
120.5,160.0,357.0833333333333,540.6363636363636,3.6666666666666665
120.83333333333333,160.0,360.0,332.8181818181818,7.75
104.25,150.0,350.0,273.25,9.666666666666666
101.25,150.0,350.0,209.08333333333334,5.833333333333333
75.83333333333333,160.0,360.0,457.0,15.583333333333334
89.0,133.0,333.0,283.25,7.666666666666667
128.08333333333334,160.0,359.5833333333333,530.1818181818181,4.75
151.08333333333334,150.0,350.0,302.3333333333333,6.5
104.16666666666667,133.0,333.0,271.6666666666667,9.083333333333334
99.41666666666667,160.0,358.75,514.3636363636364,3.75
90.75,150.0,350.0,298.1666666666667,10.0
138.91666666666666,133.0,333.0,173.0909090909091,5.916666666666667
132.08333333333334,133.0,333.0,274.75,7.833333333333333
109.41666666666667,150.0,350.0,297.6666666666667,9.583333333333334
102.25,114.0,314.0,307.0833333333333,9.083333333333334
134.41666666666666,160.0,360.0,545.4545454545455,4.75
142.66666666666666,150.0,350.0,312.75,7.333333333333333
91.66666666666667,160.0,360.0,298.9166666666667,10.166666666666666
111.66666666666667,160.0,360.0,508.6666666666667,4.5
137.0,133.0,333.0,299.0833333333333,11.25
130.5,133.0,333.0,245.9090909090909,8.166666666666666
109.5,114.0,314.0,209.75,6.5
88.33333333333333,160.0,360.0,411.72727272727275,13.583333333333334
88.08333333333333,114.0,314.0,305.5,9.333333333333334
102.08333333333333,160.0,360.0,497.6363636363636,3.8333333333333335
137.58333333333334,150.0,350.0,307.25,6.5
121.66666666666667,160.0,360.0,240.16666666666666,6.416666666666667
90.58333333333333,160.0,358.5,500.1666666666667,4.083333333333333
142.91666666666666,114.0,314.0,159.16666666666666,4.416666666666667
133.41666666666666,133.0,333.0,216.9090909090909,9.416666666666666
129.25,150.0,350.0,250.58333333333334,6.666666666666667
89.16666666666667,160.0,360.0,427.8181818181818,16.0
148.58333333333334,133.0,333.0,294.6666666666667,10.666666666666666
133.66666666666666,160.0,360.0,523.6666666666666,5.416666666666667
128.08333333333334,150.0,350.0,306.75,7.916666666666667
116.66666666666667,160.0,360.0,273.9166666666667,9.5
133.16666666666666,160.0,358.3333333333333,513.9166666666666,4.333333333333333
128.16666666666666,150.0,350.0,312.09090909090907,12.833333333333334
155.0,160.0,360.0,200.91666666666666,7.0
119.16666666666667,160.0,360.0,314.1666666666667,8.833333333333334
83.33333333333333,150.0,350.0,414.72727272727275,17.25
76.16666666666667,150.0,350.0,358.9166666666667,9.666666666666666
96.0,160.0,360.0,524.0909090909091,3.8333333333333335
123.0,150.0,350.0,319.25,7.25
136.66666666666666,160.0,360.0,233.41666666666666,6.166666666666667
84.58333333333333,160.0,358.3333333333333,509.54545454545456,3.75
98.66666666666667,133.0,333.0,233.0,9.583333333333334
156.66666666666666,160.0,360.0,208.27272727272728,7.583333333333333
107.33333333333333,133.0,333.0,300.25,11.166666666666666
77.58333333333333,133.0,333.0,416.6,16.333333333333332
122.0,150.0,350.0,374.5833333333333,11.25
129.83333333333334,160.0,359.3333333333333,551.1666666666666,5.083333333333333
142.66666666666666,150.0,350.0,318.75,7.333333333333333
116.75,133.0,333.0,225.5,5.25
142.91666666666666,160.0,357.9166666666667,568.2727272727273,5.166666666666667
97.25,133.0,333.0,295.75,10.083333333333334
101.08333333333333,150.0,350.0,255.9,6.75
123.25,133.0,333.0,286.0,9.0
90.66666666666667,150.0,350.0,296.6666666666667,8.916666666666666
86.83333333333333,114.0,314.0,281.0,8.583333333333334
100.08333333333333,160.0,360.0,516.0833333333334,4.166666666666667
154.25,150.0,350.0,305.75,7.083333333333333
93.33333333333333,160.0,360.0,307.3333333333333,9.25
118.58333333333333,160.0,360.8333333333333,500.8333333333333,4.0
120.0,160.0,360.0,382.1818181818182,11.083333333333334
105.5,133.0,333.0,273.72727272727275,8.083333333333334
127.75,133.0,333.0,255.8181818181818,5.916666666666667
82.16666666666667,133.0,333.0,379.0,17.25
140.83333333333334,150.0,350.0,334.3333333333333,7.0
113.0,160.0,360.0,537.8181818181819,4.583333333333333
145.91666666666666,150.0,350.0,335.6666666666667,7.416666666666667
129.33333333333334,133.0,333.0,221.41666666666666,5.25
89.83333333333333,160.0,361.6666666666667,508.1818181818182,4.0
85.91666666666667,133.0,333.0,365.45454545454544,13.833333333333334
138.58333333333334,150.0,350.0,217.6,3.9166666666666665
132.33333333333334,150.0,350.0,215.0,4.666666666666667
74.75,145.0,345.0,453.6,14.083333333333334
117.75,114.0,314.0,292.1666666666667,10.666666666666666
142.0,160.0,357.9166666666667,592.2727272727273,5.333333333333333
143.83333333333334,150.0,350.0,312.8333333333333,6.916666666666667
116.66666666666667,160.0,360.0,243.75,6.166666666666667
128.33333333333334,160.0,356.6666666666667,533.0,4.25
102.08333333333333,150.0,350.0,342.8181818181818,9.583333333333334
109.25,133.0,333.0,230.3,5.583333333333333
96.83333333333333,150.0,350.0,222.16666666666666,6.583333333333333
144.33333333333334,133.0,333.0,361.8333333333333,11.583333333333334
148.75,133.0,333.0,292.0833333333333,10.333333333333334
142.75,160.0,358.3333333333333,520.2727272727273,4.5
133.5,150.0,350.0,315.25,7.583333333333333
150.0,160.0,360.0,280.8333333333333,10.583333333333334
147.33333333333334,160.0,359.0,520.5833333333334,4.5
142.5,160.0,360.0,255.25,6.333333333333333
129.25,133.0,333.0,203.91666666666666,7.583333333333333
112.08333333333333,133.0,333.0,264.0833333333333,7.666666666666667
94.16666666666667,160.0,360.0,404.45454545454544,11.25
108.33333333333333,114.0,314.0,283.8181818181818,7.166666666666667
114.58333333333333,160.0,361.25,556.0,3.8333333333333335
141.75,150.0,350.0,294.9166666666667,7.416666666666667
130.0,160.0,360.0,239.25,5.833333333333333
118.75,160.0,356.6666666666667,490.8181818181818,3.3333333333333335
136.83333333333334,114.0,314.0,190.8,7.75
127.83333333333333,133.0,333.0,217.25,6.75
144.58333333333334,133.0,333.0,147.45454545454547,3.75
93.41666666666667,133.0,333.0,379.6666666666667,14.333333333333334
88.16666666666667,114.0,314.0,313.4166666666667,10.333333333333334
122.58333333333333,160.0,360.0,518.0909090909091,4.083333333333333
151.0,150.0,350.0,308.0833333333333,7.333333333333333
118.16666666666667,133.0,333.0,242.66666666666666,6.083333333333333
84.75,160.0,360.0,513.8181818181819,3.5
126.08333333333333,114.0,314.0,227.83333333333334,7.666666666666667
151.41666666666666,133.0,333.0,213.1818181818182,6.75
119.5,133.0,333.0,266.6,7.833333333333333
84.16666666666667,160.0,360.0,449.0,16.833333333333332
131.25,150.0,350.0,329.8333333333333,9.5
144.41666666666666,160.0,360.0,548.5454545454545,4.833333333333333
134.41666666666666,150.0,350.0,307.3333333333333,7.0
103.33333333333333,160.0,360.0,279.9166666666667,9.0
136.91666666666666,160.0,358.5,514.75,4.666666666666667
125.08333333333333,133.0,333.0,209.08333333333334,8.0
156.0,114.0,314.0,195.1818181818182,7.083333333333333
115.66666666666667,133.0,333.0,247.33333333333334,7.083333333333333
80.58333333333333,133.0,333.0,291.1666666666667,11.333333333333334
92.91666666666667,114.0,314.0,309.8333333333333,9.5
142.66666666666666,160.0,360.0,506.27272727272725,4.333333333333333
154.25,150.0,350.0,308.0,6.75
120.0,160.0,360.0,301.1666666666667,10.0
97.0,160.0,357.5,555.6363636363636,3.9166666666666665
122.83333333333333,133.0,333.0,308.75,8.166666666666666
114.27272727272727,133.0,333.0,191.33333333333334,3.4166666666666665
134.41666666666666,150.0,350.0,204.0,6.083333333333333
91.66666666666667,160.0,360.0,362.27272727272725,11.583333333333334
99.91666666666667,114.0,314.0,294.0,9.583333333333334
146.75,160.0,357.5,550.1818181818181,4.333333333333333
144.83333333333334,150.0,350.0,328.5,7.833333333333333
148.66666666666666,133.0,333.0,246.91666666666666,6.083333333333333
145.41666666666666,160.0,357.5,538.1818181818181,4.416666666666667
105.41666666666667,133.0,333.0,339.0833333333333,13.083333333333334
135.25,133.0,333.0,234.41666666666666,5.916666666666667
87.41666666666667,133.0,333.0,287.75,7.25
114.16666666666667,160.0,360.0,482.7,16.583333333333332
131.41666666666666,133.0,333.0,369.25,10.833333333333334
128.33333333333334,160.0,360.0,541.6363636363636,5.083333333333333
148.0,150.0,350.0,306.25,6.5
115.16666666666667,133.0,333.0,249.0,5.75
88.41666666666667,160.0,361.25,474.8181818181818,3.25
103.25,150.0,350.0,308.8333333333333,10.25
151.66666666666666,160.0,360.0,211.0,6.833333333333333
124.0,133.0,333.0,274.1666666666667,10.5
81.66666666666667,160.0,360.0,422.72727272727275,11.666666666666666
98.75,114.0,314.0,284.4166666666667,8.333333333333334
140.25,160.0,360.0,548.2,4.416666666666667
136.41666666666666,150.0,350.0,285.1666666666667,6.833333333333333
115.0,160.0,360.0,253.5,7.083333333333333
88.5,160.0,358.3333333333333,523.0,3.6666666666666665
101.08333333333333,114.0,314.0,294.4,11.916666666666666
105.25,150.0,350.0,226.8,4.833333333333333
147.83333333333334,145.0,345.0,309.27272727272725,7.833333333333333
121.91666666666667,150.0,350.0,246.41666666666666,7.25
98.75,133.0,333.0,311.5,10.083333333333334
135.66666666666666,160.0,358.3333333333333,540.9090909090909,4.583333333333333
138.58333333333334,150.0,350.0,317.9166666666667,7.666666666666667
123.33333333333333,160.0,360.0,227.08333333333334,4.916666666666667
62.416666666666664,160.0,360.0,483.5833333333333,3.8333333333333335
119.16666666666667,160.0,360.0,287.3636363636364,8.083333333333334
122.25,133.0,333.0,263.75,8.916666666666666
123.33333333333333,160.0,360.0,271.5,6.916666666666667
73.91666666666667,133.0,333.0,373.5833333333333,14.166666666666666
91.58333333333333,114.0,314.0,315.0,10.75
152.58333333333334,160.0,360.0,553.2727272727273,5.166666666666667
142.83333333333334,150.0,350.0,311.75,7.083333333333333
93.33333333333333,160.0,360.0,288.9166666666667,10.0
86.83333333333333,160.0,357.9166666666667,551.5454545454545,4.083333333333333
132.08333333333334,114.0,314.0,236.91666666666666,10.083333333333334
126.66666666666667,160.0,360.0,276.9,6.916666666666667
119.08333333333333,114.0,314.0,191.16666666666666,6.583333333333333
102.41666666666667,114.0,314.0,289.5,11.166666666666666
97.58333333333333,114.0,314.0,249.83333333333334,6.583333333333333
109.0,160.0,360.0,520.25,4.333333333333333
134.5,150.0,350.0,312.25,7.25
108.33333333333333,160.0,360.0,260.25,7.916666666666667
102.41666666666667,160.0,360.0,516.4545454545455,3.75
135.0,160.0,360.0,303.5833333333333,8.583333333333334
139.0,133.0,333.0,251.33333333333334,5.916666666666667
117.5,160.0,360.0,323.9166666666667,8.083333333333334
57.166666666666664,133.0,333.0,375.1666666666667,17.5
92.75,114.0,314.0,273.5,7.166666666666667
107.41666666666667,160.0,355.8333333333333,545.3636363636364,4.583333333333333
132.25,150.0,350.0,334.5,8.166666666666666
93.33333333333333,160.0,360.0,306.72727272727275,9.916666666666666
130.25,160.0,358.5,556.6666666666666,4.916666666666667
94.75,150.0,350.0,337.45454545454544,14.083333333333334
148.33333333333334,160.0,360.0,209.63636363636363,5.833333333333333
100.0,145.0,345.0,274.25,8.166666666666666
73.91666666666667,133.0,333.0,410.0833333333333,18.333333333333332
136.16666666666666,133.0,333.0,321.9166666666667,7.416666666666667
74.16666666666667,160.0,360.0,494.7,3.6666666666666665
160.58333333333334,150.0,350.0,311.5833333333333,7.5
100.0,133.0,333.0,270.5,8.5
133.66666666666666,160.0,357.5,537.2727272727273,4.083333333333333
78.5,133.0,333.0,330.3333333333333,13.25
137.08333333333334,133.0,333.0,272.27272727272725,7.0
127.25,145.0,345.0,274.9166666666667,6.583333333333333
56.25,150.0,350.0,446.72727272727275,23.75
119.0,114.0,314.0,299.1666666666667,9.583333333333334
132.0,159.33333333333334,359.0,525.3333333333334,4.916666666666667
139.66666666666666,150.0,350.0,304.25,7.25
115.33333333333333,133.0,333.0,241.41666666666666,5.583333333333333
67.33333333333333,160.0,357.0833333333333,515.7272727272727,3.6666666666666665
137.5,150.0,350.0,301.90909090909093,9.833333333333334
158.33333333333334,160.0,360.0,203.45454545454547,5.833333333333333
120.83333333333333,160.0,360.0,275.8333333333333,6.666666666666667
120.0,160.0,360.0,437.1818181818182,12.5
136.5,150.0,350.0,354.6666666666667,9.916666666666666
124.66666666666667,160.0,360.0,529.0,4.916666666666667
149.08333333333334,150.0,350.0,301.6666666666667,7.25
103.33333333333333,160.0,360.0,308.75,11.083333333333334
83.58333333333333,160.0,359.3333333333333,545.75,4.083333333333333
149.16666666666666,160.0,360.0,401.6666666666667,9.416666666666666
136.16666666666666,133.0,333.0,205.16666666666666,7.25
104.16666666666667,160.0,360.0,301.5833333333333,7.416666666666667
136.16666666666666,133.0,333.0,327.5833333333333,11.75
108.33333333333333,133.0,333.0,287.5,8.75
125.25,160.0,360.0,531.5833333333334,4.666666666666667
146.91666666666666,150.0,350.0,313.4166666666667,8.083333333333334
110.0,160.0,360.0,283.25,9.833333333333334
117.75,160.0,358.5,525.5833333333334,4.583333333333333
114.58333333333333,150.0,350.0,323.0,13.416666666666666
118.08333333333333,133.0,333.0,204.66666666666666,7.083333333333333
107.66666666666667,133.0,333.0,279.0,7.0
100.0,160.0,360.0,452.4166666666667,16.416666666666668
116.66666666666667,133.0,333.0,340.5,7.5
138.08333333333334,160.0,360.0,555.0,4.666666666666667
138.66666666666666,150.0,350.0,314.6666666666667,7.333333333333333
111.16666666666667,133.0,333.0,239.5,5.666666666666667
93.33333333333333,160.0,358.0833333333333,501.0,3.5833333333333335
132.25,150.0,350.0,272.22222222222223,7.833333333333333
145.5,145.0,345.0,215.7,3.75
150.0,133.0,333.0,182.0,7.833333333333333
81.25,150.0,350.0,365.0,13.75
150.25,150.0,350.0,344.09090909090907,8.75
124.0,160.0,360.0,510.4166666666667,4.75
138.5,150.0,350.0,306.5833333333333,6.833333333333333
126.66666666666667,160.0,360.0,217.45454545454547,4.666666666666667
108.91666666666667,160.0,357.0833333333333,540.5454545454545,3.9166666666666665
85.16666666666667,133.0,333.0,293.3333333333333,9.583333333333334
125.91666666666667,133.0,333.0,219.9090909090909,4.25
103.16666666666667,150.0,350.0,194.66666666666666,4.833333333333333
95.33333333333333,133.0,333.0,256.72727272727275,6.5
142.75,150.0,350.0,287.9166666666667,6.0
74.91666666666667,160.0,360.0,498.1,3.75
143.83333333333334,150.0,350.0,315.8333333333333,7.75
128.33333333333334,160.0,360.0,237.91666666666666,5.416666666666667
82.33333333333333,160.0,360.0,488.9166666666667,3.9166666666666665
113.83333333333333,133.0,333.0,257.3,9.666666666666666
137.16666666666666,133.0,333.0,247.66666666666666,8.583333333333334
134.58333333333334,114.0,314.0,204.33333333333334,7.833333333333333
98.91666666666667,150.0,350.0,255.75,7.75
94.5,133.0,333.0,273.0833333333333,7.333333333333333
77.58333333333333,160.0,358.3333333333333,502.8333333333333,3.9166666666666665
140.83333333333334,150.0,350.0,306.6666666666667,7.25
135.0,160.0,360.0,267.5833333333333,7.25
140.83333333333334,160.0,357.5,572.0909090909091,5.0
102.08333333333333,150.0,350.0,305.0,12.25
179.75,114.0,314.0,214.08333333333334,7.0
131.66666666666666,160.0,360.0,263.8,5.583333333333333
62.833333333333336,133.0,333.0,377.6363636363636,16.083333333333332
133.25,114.0,314.0,309.0,10.583333333333334
126.0,160.0,360.0,511.1818181818182,4.333333333333333
148.0,150.0,350.0,307.6666666666667,7.583333333333333
93.33333333333333,160.0,360.0,303.0,8.166666666666666
132.08333333333334,160.0,357.9166666666667,530.1666666666666,5.0
122.91666666666667,150.0,350.0,283.6,9.416666666666666
108.25,114.0,314.0,215.66666666666666,6.916666666666667
141.75,150.0,350.0,251.75,9.5
88.08333333333333,114.0,314.0,254.58333333333334,10.583333333333334
124.0,150.0,350.0,340.4166666666667,9.833333333333334
106.91666666666667,159.16666666666666,358.3333333333333,537.3333333333334,4.916666666666667
141.75,150.0,350.0,323.4166666666667,7.916666666666667
83.33333333333333,160.0,360.0,273.5,8.0
106.08333333333333,160.0,357.9166666666667,560.0909090909091,4.916666666666667
98.0,133.0,333.0,269.72727272727275,10.083333333333334
125.0,133.0,332.0833333333333,251.16666666666666,6.416666666666667
121.91666666666667,145.0,345.0,274.6666666666667,7.75
80.33333333333333,150.0,350.0,318.7,10.916666666666666
100.0,114.0,314.0,286.3333333333333,9.166666666666666
125.25,160.0,360.0,548.1818181818181,4.416666666666667
160.58333333333334,150.0,350.0,279.9166666666667,6.0
106.66666666666667,160.0,360.0,285.1666666666667,9.5
81.41666666666667,160.0,360.0,517.0,3.8333333333333335
108.25,114.0,314.0,227.9,8.666666666666666
127.75,133.0,333.0,175.5,5.666666666666667
134.5,150.0,350.0,253.41666666666666,8.75
94.0,114.0,314.0,279.8,9.666666666666666
90.5,114.0,314.0,314.4166666666667,10.5
61.666666666666664,160.0,354.5833333333333,533.4545454545455,4.416666666666667
145.91666666666666,150.0,350.0,298.0,6.333333333333333
100.0,133.0,333.0,274.9166666666667,9.5
101.5,160.0,357.0833333333333,518.6363636363636,4.0
96.91666666666667,150.0,350.0,350.1818181818182,7.666666666666667
77.08333333333333,150.0,350.0,291.5,9.083333333333334
126.33333333333333,114.0,314.0,219.83333333333334,7.75
105.25,150.0,350.0,288.72727272727275,9.416666666666666
90.41666666666667,114.0,314.0,317.4166666666667,11.416666666666666
145.08333333333334,160.0,360.0,534.25,5.083333333333333
137.66666666666666,150.0,350.0,319.0833333333333,7.25
116.66666666666667,160.0,360.0,264.4166666666667,8.5
73.66666666666667,160.0,359.5833333333333,512.6363636363636,4.166666666666667
129.25,150.0,350.0,264.1818181818182,8.5
113.83333333333333,133.0,333.0,201.58333333333334,6.583333333333333
132.0,133.0,333.0,196.83333333333334,6.75
91.58333333333333,133.0,333.0,357.54545454545456,15.25
142.91666666666666,133.0,333.0,291.0,11.75
146.66666666666666,160.0,360.0,521.4166666666666,5.0
140.66666666666666,150.0,350.0,312.1666666666667,7.25
121.66666666666667,160.0,360.0,243.91666666666666,6.083333333333333
139.91666666666666,160.0,357.0833333333333,511.45454545454544,3.8333333333333335
132.41666666666666,150.0,350.0,267.0,8.416666666666666
133.41666666666666,133.0,333.0,237.0,7.083333333333333
85.16666666666667,133.0,333.0,243.1818181818182,5.916666666666667
58.333333333333336,150.0,350.0,364.8181818181818,14.166666666666666
151.33333333333334,133.0,333.0,282.1666666666667,11.333333333333334
88.0,160.0,355.0,519.7,3.9166666666666665
143.75,150.0,350.0,310.0,7.583333333333333
98.33333333333333,160.0,360.0,323.5833333333333,10.583333333333334
86.83333333333333,160.0,357.0833333333333,467.5833333333333,3.75
102.83333333333333,133.0,333.0,320.4166666666667,12.166666666666666
150.08333333333334,145.0,345.0,267.54545454545456,7.0
123.08333333333333,150.0,350.0,276.0833333333333,8.666666666666666
106.33333333333333,150.0,350.0,276.5,9.25
145.91666666666666,150.0,350.0,360.4166666666667,10.333333333333334
111.66666666666667,160.0,360.0,511.6,3.5833333333333335
144.83333333333334,150.0,350.0,302.6666666666667,7.25
135.0,160.0,360.0,271.1666666666667,9.333333333333334
106.16666666666667,160.0,355.0,491.3636363636364,3.9166666666666665
122.91666666666667,150.0,350.0,252.08333333333334,9.75
119.16666666666667,160.0,360.0,255.08333333333334,8.333333333333334
134.0,133.0,333.0,277.4166666666667,7.333333333333333
101.08333333333333,150.0,350.0,285.7,7.333333333333333
114.66666666666667,150.0,350.0,348.75,8.916666666666666
88.5,160.0,360.0,498.09090909090907,4.083333333333333
140.75,150.0,350.0,322.5,8.0
98.33333333333333,160.0,360.0,285.3333333333333,8.75
118.0,160.0,359.0,519.25,4.583333333333333
128.5,114.0,314.0,267.5833333333333,13.083333333333334
141.58333333333334,133.0,333.0,221.2,8.083333333333334
122.58333333333333,114.0,314.0,213.08333333333334,6.5
113.83333333333333,160.0,360.0,394.6666666666667,11.0
73.66666666666667,114.0,314.0,309.9166666666667,10.833333333333334
78.83333333333333,160.0,358.3333333333333,560.9090909090909,4.666666666666667
137.5,150.0,350.0,318.6666666666667,7.333333333333333
121.41666666666667,114.0,314.0,235.58333333333334,5.833333333333333
113.08333333333333,160.0,357.0833333333333,522.6363636363636,4.25
110.41666666666667,150.0,350.0,351.45454545454544,13.083333333333334
122.33333333333333,133.0,333.0,193.58333333333334,6.333333333333333
120.0,160.0,360.0,286.0833333333333,6.75
93.41666666666667,133.0,333.0,396.7,15.5
151.25,114.0,314.0,306.75,11.5
129.5,160.0,360.0,536.0,4.5
157.41666666666666,150.0,350.0,299.25,7.083333333333333
120.0,160.0,360.0,293.0833333333333,11.166666666666666
135.16666666666666,160.0,358.3333333333333,547.2727272727273,5.166666666666667
94.83333333333333,150.0,350.0,318.9166666666667,11.833333333333334
110.75,114.0,314.0,184.27272727272728,4.416666666666667
100.08333333333333,133.0,333.0,245.75,6.833333333333333
72.0,133.0,333.0,429.3,15.333333333333334
125.08333333333333,133.0,333.0,355.25,9.833333333333334
144.83333333333334,160.0,360.0,569.2727272727273,5.083333333333333
125.0,150.0,350.0,327.3333333333333,7.833333333333333
118.33333333333333,160.0,360.0,253.0,6.583333333333333
98.83333333333333,160.0,357.9166666666667,471.45454545454544,3.6666666666666665
105.16666666666667,150.0,350.0,280.54545454545456,10.0
117.5,160.0,360.0,280.9166666666667,7.5
103.5,114.0,314.0,202.25,7.416666666666667
116.58333333333333,145.0,345.0,362.25,13.666666666666666
123.83333333333333,114.0,314.0,286.5833333333333,9.916666666666666
122.25,160.0,359.1666666666667,560.1818181818181,5.0
152.16666666666666,150.0,350.0,316.1666666666667,6.833333333333333
115.0,160.0,360.0,255.0,7.666666666666667
137.83333333333334,160.0,358.75,536.7272727272727,4.333333333333333
149.41666666666666,133.0,333.0,360.4166666666667,8.25
100.91666666666667,133.0,333.0,274.22222222222223,7.333333333333333
91.66666666666667,160.0,360.0,292.4166666666667,7.75
68.33333333333333,133.0,333.0,288.3333333333333,10.833333333333334
127.08333333333333,150.0,350.0,321.9166666666667,7.75
135.75,160.0,359.8333333333333,533.5,5.25
132.25,150.0,350.0,321.0,7.75
116.66666666666667,160.0,360.0,300.5833333333333,9.416666666666666
73.66666666666667,160.0,356.25,508.3636363636364,3.8333333333333335
137.5,150.0,350.0,242.9,6.333333333333333
97.58333333333333,114.0,314.0,184.9090909090909,5.5
132.83333333333334,145.0,345.0,307.6666666666667,7.583333333333333
86.16666666666667,133.0,333.0,283.8333333333333,7.833333333333333
128.58333333333334,114.0,314.0,270.0,7.583333333333333
133.58333333333334,160.0,357.0833333333333,517.4545454545455,4.583333333333333
133.5,150.0,350.0,313.6666666666667,7.5
96.66666666666667,160.0,360.0,299.25,9.166666666666666
78.58333333333333,160.0,356.6666666666667,514.0,3.75
79.33333333333333,133.0,333.0,343.90909090909093,13.416666666666666
111.08333333333333,133.0,333.0,244.54545454545453,7.0
129.5,145.0,345.0,331.5833333333333,9.5
133.33333333333334,160.0,360.0,320.44444444444446,7.0
107.16666666666667,114.0,314.0,322.75,9.5
98.16666666666667,160.0,354.1666666666667,523.0,4.083333333333333
141.75,150.0,350.0,324.9166666666667,7.75
106.66666666666667,160.0,360.0,242.33333333333334,5.916666666666667
128.33333333333334,160.0,360.0,534.25,4.916666666666667
101.18181818181819,150.0,350.0,368.1,13.0
120.08333333333333,114.0,314.0,229.88888888888889,6.25
137.16666666666666,145.0,345.0,266.3333333333333,7.5
87.5,160.0,360.0,404.3636363636364,13.0
96.5,114.0,314.0,314.25,10.833333333333334
145.91666666666666,160.0,360.0,530.75,5.25
125.0,150.0,350.0,310.8333333333333,7.166666666666667
119.33333333333333,133.0,333.0,234.63636363636363,6.0
120.0,160.0,376.25,484.6363636363636,4.0
99.0,150.0,350.0,361.0,11.916666666666666
144.5,133.0,333.0,221.5,6.583333333333333
113.66666666666667,150.0,350.0,267.54545454545456,7.583333333333333
111.25,145.0,345.0,395.4166666666667,13.166666666666666
123.0,150.0,350.0,346.0833333333333,9.416666666666666
137.66666666666666,160.0,360.0,526.7272727272727,4.5
139.66666666666666,150.0,350.0,329.75,8.25
110.0,160.0,360.0,244.91666666666666,6.666666666666667
86.83333333333333,160.0,358.75,473.3636363636364,3.6666666666666665
145.5,145.0,345.0,341.75,9.666666666666666
114.25,114.0,314.0,216.41666666666666,7.75
111.08333333333333,133.0,333.0,229.5,8.25
73.91666666666667,133.0,333.0,361.25,14.083333333333334
76.08333333333333,114.0,314.0,318.3333333333333,10.5
73.33333333333333,160.0,360.0,519.3333333333334,4.416666666666667
145.91666666666666,150.0,350.0,302.75,6.916666666666667
98.75,133.0,333.0,237.8181818181818,5.5
128.5,160.0,357.5,486.72727272727275,3.8333333333333335
80.41666666666667,133.0,333.0,413.8181818181818,16.833333333333332
123.0,150.0,350.0,222.75,6.166666666666667
130.66666666666666,154.0,354.0,317.3333333333333,7.25
91.75,150.0,350.0,329.5833333333333,12.833333333333334
89.33333333333333,114.0,314.0,320.1666666666667,9.75
128.25,160.0,360.0,551.5454545454545,4.833333333333333
140.66666666666666,150.0,350.0,316.8333333333333,8.083333333333334
121.66666666666667,160.0,360.0,238.91666666666666,5.416666666666667
82.33333333333333,160.0,361.6666666666667,466.1,3.25
119.91666666666667,150.0,350.0,222.54545454545453,5.916666666666667
154.25,133.0,333.0,228.66666666666666,7.0
101.08333333333333,150.0,350.0,213.33333333333334,6.0
136.75,133.0,333.0,403.0,10.916666666666666
136.66666666666666,150.0,350.0,349.8333333333333,8.333333333333334
108.08333333333333,160.0,358.75,519.1818181818181,4.166666666666667
128.08333333333334,150.0,350.0,312.9166666666667,7.25
113.33333333333333,160.0,360.0,237.41666666666666,5.5
124.83333333333333,160.0,361.6666666666667,510.75,4.166666666666667
150.08333333333334,150.0,350.0,263.9166666666667,8.416666666666666
106.66666666666667,160.0,360.0,174.66666666666666,5.416666666666667
114.75,150.0,350.0,206.25,5.25
89.75,133.0,333.0,403.9166666666667,17.916666666666668
96.41666666666667,114.0,314.0,267.5833333333333,7.166666666666667
115.08333333333333,160.0,359.1666666666667,523.0,4.25
134.33333333333334,150.0,350.0,307.75,6.833333333333333
108.33333333333333,160.0,360.0,262.5,10.166666666666666
134.66666666666666,160.0,362.0833333333333,536.9090909090909,4.5
100.0,133.0,333.0,273.90909090909093,9.75
133.33333333333334,114.0,314.0,216.36363636363637,8.0
130.66666666666666,133.0,333.0,150.58333333333334,5.083333333333333
78.58333333333333,133.0,333.0,409.9,14.5
142.58333333333334,133.0,333.0,353.25,10.166666666666666
131.66666666666666,160.0,360.0,538.4545454545455,4.833333333333333
112.41666666666667,150.0,350.0,334.5833333333333,7.583333333333333
100.0,160.0,360.0,278.5833333333333,7.916666666666667
83.5,160.0,362.0833333333333,510.09090909090907,4.0
101.08333333333333,150.0,350.0,305.1666666666667,10.75
145.0,160.0,360.0,278.6666666666667,7.333333333333333
110.83333333333333,160.0,360.0,262.4166666666667,7.5
100.0,150.0,350.0,270.8181818181818,7.166666666666667
79.66666666666667,114.0,314.0,325.75,11.666666666666666
113.91666666666667,160.0,360.0,536.6363636363636,4.583333333333333
143.75,150.0,350.0,299.25,6.833333333333333
88.33333333333333,160.0,360.0,265.1666666666667,7.5
110.83333333333333,160.0,356.25,490.54545454545456,3.8333333333333335
138.58333333333334,150.0,350.0,262.90909090909093,8.666666666666666
117.91666666666667,114.0,314.0,220.54545454545453,5.916666666666667
98.16666666666667,133.0,333.0,315.25,10.166666666666666
85.83333333333333,160.0,360.0,405.8181818181818,12.083333333333334
105.91666666666667,114.0,314.0,258.0,5.166666666666667
108.33333333333333,160.0,360.0,526.0909090909091,4.333333333333333
126.0,150.0,350.0,315.9166666666667,6.833333333333333
130.0,160.0,360.0,232.08333333333334,5.583333333333333
81.08333333333333,160.0,356.6666666666667,519.7272727272727,4.0
95.91666666666667,150.0,350.0,279.1111111111111,5.75
121.91666666666667,150.0,350.0,266.54545454545456,8.666666666666666
107.41666666666667,150.0,350.0,241.5,7.666666666666667
100.08333333333333,150.0,350.0,310.4166666666667,10.0
130.33333333333334,150.0,350.0,357.5833333333333,11.416666666666666
139.66666666666666,160.0,360.0,560.0,5.333333333333333
134.33333333333334,150.0,350.0,316.3333333333333,7.333333333333333
110.0,160.0,360.0,305.0833333333333,11.666666666666666
131.41666666666666,159.16666666666666,357.9166666666667,554.0833333333334,5.083333333333333
89.66666666666667,150.0,350.0,325.0,12.25
85.25,133.0,333.0,234.9090909090909,7.5
122.0,145.0,345.0,294.1666666666667,7.916666666666667
143.33333333333334,160.0,360.0,313.3333333333333,9.166666666666666
117.83333333333333,114.0,314.0,290.0,9.416666666666666
123.08333333333333,160.0,360.0,514.8181818181819,4.5
144.83333333333334,150.0,350.0,306.1666666666667,6.916666666666667
126.66666666666667,160.0,360.0,236.25,6.583333333333333
69.16666666666667,160.0,356.6666666666667,547.0,4.25
80.58333333333333,133.0,333.0,270.25,8.75
140.25,133.0,333.0,195.0,6.833333333333333
126.25,133.0,333.0,243.27272727272728,6.083333333333333
114.75,133.0,333.0,293.25,9.916666666666666
143.33333333333334,160.0,360.0,249.83333333333334,6.333333333333333
125.55555555555556,160.0,360.0,524.1111111111111,3.8333333333333335
132.25,150.0,350.0,304.1666666666667,7.583333333333333
106.66666666666667,160.0,360.0,244.66666666666666,7.083333333333333
116.25,160.0,358.5,498.3636363636364,4.0
122.58333333333333,114.0,314.0,252.72727272727272,9.75
131.5,133.0,333.0,211.8181818181818,5.416666666666667
138.33333333333334,160.0,360.0,314.75,8.75
124.91666666666667,145.0,345.0,433.25,17.333333333333332
124.0,150.0,350.0,311.25,6.583333333333333
111.25,160.0,359.5833333333333,522.1,4.75
150.91666666666666,150.0,350.0,302.4166666666667,7.0
120.0,160.0,360.0,250.0,5.75
75.58333333333333,160.0,359.75,503.6363636363636,4.0
102.08333333333333,150.0,350.0,301.5,15.25
148.66666666666666,133.0,333.0,212.91666666666666,9.666666666666666
116.66666666666667,160.0,360.0,277.6666666666667,6.75
153.33333333333334,160.0,360.0,262.4166666666667,7.0
133.33333333333334,114.0,314.0,296.9166666666667,10.416666666666666
103.75,160.0,359.5833333333333,522.9090909090909,4.166666666666667
145.91666666666666,150.0,350.0,334.0833333333333,8.416666666666666
122.16666666666667,133.0,333.0,258.8333333333333,6.333333333333333
82.83333333333333,160.0,360.0,512.3636363636364,3.9166666666666665
115.58333333333333,150.0,350.0,277.3,8.833333333333334
146.66666666666666,160.0,360.0,196.1818181818182,6.5
123.33333333333333,160.0,360.0,247.72727272727272,5.666666666666667
57.333333333333336,150.0,350.0,349.45454545454544,11.0
116.66666666666667,114.0,314.0,297.0,9.166666666666666
98.16666666666667,159.33333333333334,359.3333333333333,533.5833333333334,4.833333333333333
141.66666666666666,150.0,350.0,312.5,7.833333333333333
118.33333333333333,160.0,360.0,268.5833333333333,7.666666666666667
79.0,160.0,361.6666666666667,474.0,3.75
113.66666666666667,150.0,350.0,296.25,9.0
159.41666666666666,150.0,350.0,247.66666666666666,9.0
115.16666666666667,145.0,345.0,264.8333333333333,5.833333333333333
78.5,133.0,333.0,364.3333333333333,8.833333333333334
82.0,114.0,314.0,301.25,9.333333333333334
133.75,160.0,360.0,559.6363636363636,4.75
124.08333333333333,150.0,350.0,312.4166666666667,7.0
123.33333333333333,160.0,360.0,264.5,6.416666666666667
91.41666666666667,159.33333333333334,357.9166666666667,454.0,3.3333333333333335
94.75,150.0,350.0,310.0,11.5
135.83333333333334,160.0,360.0,260.0,8.083333333333334
145.0,160.0,360.0,301.27272727272725,8.833333333333334
75.66666666666667,133.0,333.0,426.9,16.083333333333332
146.91666666666666,150.0,350.0,340.25,9.75
142.83333333333334,160.0,360.0,536.6363636363636,4.75
149.0,150.0,350.0,307.6666666666667,6.75
116.66666666666667,160.0,360.0,262.5833333333333,7.5
89.5,159.33333333333334,348.0833333333333,478.6363636363636,3.6666666666666665
130.91666666666666,114.0,314.0,219.91666666666666,9.75
113.91666666666667,133.0,333.0,234.2,5.75
120.25,114.0,314.0,169.16666666666666,5.5
100.83333333333333,160.0,360.0,428.75,18.25
133.41666666666666,150.0,350.0,364.4166666666667,11.333333333333334
133.75,160.0,359.5833333333333,543.2727272727273,4.666666666666667
154.16666666666666,150.0,350.0,306.75,7.25
108.33333333333333,160.0,360.0,304.54545454545456,10.25
83.58333333333333,160.0,360.0,525.8181818181819,4.083333333333333
114.66666666666667,133.0,333.0,256.8181818181818,8.333333333333334
130.0,160.0,360.0,212.9090909090909,6.0
132.41666666666666,133.0,333.0,255.83333333333334,8.666666666666666
135.5,150.0,350.0,267.8181818181818,8.5
102.75,133.0,333.0,283.25,7.833333333333333
105.41666666666667,160.0,362.0833333333333,528.9090909090909,4.333333333333333
144.75,150.0,350.0,302.0833333333333,6.916666666666667
98.33333333333333,160.0,360.0,252.36363636363637,6.25
75.33333333333333,160.0,350.8333333333333,455.6666666666667,3.5
94.83333333333333,150.0,350.0,264.3636363636364,7.916666666666667
126.66666666666667,160.0,360.0,209.4,6.5
126.66666666666667,160.0,360.0,275.3333333333333,7.416666666666667
